tempMLX,FSR_A1,FSR_A2,FSR_A3,FSR_B1,FSR_B2,FSR_B3,FSR_C,porcAper
0.0,0.0,0.0,0.0,0.0,0.0,0.0,0.0,15.0
0.0,0.0,0.0,0.0,0.0,0.0,0.0,0.0,15.0
26.93,0.0,0.0,0.0,0.0,0.0,0.0,0.0,15.0
26.87,0.0,0.0,0.0,0.0,0.0,0.0,0.0,15.0
26.87,0.0,0.0,0.0,0.0,0.0,0.0,0.0,15.0
26.97,0.0,0.0,0.0,0.0,0.0,0.0,0.0,15.0
26.97,0.0,0.0,0.0,0.0,0.0,0.0,0.0,15.0
26.85,0.0,0.0,0.0,0.0,0.0,0.0,0.0,15.0
26.93,0.0,0.0,0.0,0.0,0.0,0.0,0.0,15.0
26.87,0.0,0.0,0.0,0.0,0.0,0.0,0.0,15.0
26.91,0.0,0.0,0.0,0.0,0.0,0.0,0.0,15.0
26.91,0.0,0.0,0.0,0.0,0.0,0.0,0.0,15.0
26.87,0.0,0.0,0.0,0.0,0.0,0.0,0.0,15.0
26.87,0.0,0.0,0.0,0.0,0.0,0.0,0.0,15.0
26.87,0.0,0.0,0.0,0.0,0.0,0.0,0.0,15.0
26.93,0.0,0.0,0.0,0.0,0.0,0.0,0.0,15.0
26.91,0.0,0.0,0.0,0.0,0.0,0.0,0.0,15.0
26.93,0.0,0.0,0.0,0.0,0.0,0.0,0.0,15.0
26.91,0.0,0.0,0.0,0.0,0.0,0.0,0.0,15.0
26.87,0.0,0.0,0.0,0.0,0.0,0.0,0.0,15.0
26.93,0.0,0.0,0.0,0.0,0.0,0.0,0.0,15.0
26.85,0.0,0.0,0.0,0.0,0.0,0.0,0.0,15.0
26.87,0.0,0.0,0.0,0.0,0.0,0.0,0.0,15.0
26.91,0.0,0.0,0.0,0.0,0.0,0.0,0.0,15.0
26.87,0.0,0.0,0.0,0.0,0.0,0.0,0.0,15.0
26.91,0.0,0.0,0.0,0.0,0.0,0.0,0.0,15.0
26.87,0.0,0.0,0.0,0.0,0.0,0.0,0.0,15.0
26.93,0.0,0.0,0.0,0.0,0.0,0.0,0.0,15.0
26.91,0.0,0.0,0.0,0.0,0.0,0.0,0.0,15.0
26.87,0.0,0.0,0.0,0.0,0.0,0.0,0.0,15.0
26.97,0.0,0.0,0.0,0.0,0.0,0.0,0.0,15.0
26.93,0.0,0.0,0.0,0.0,0.0,0.0,0.0,15.0
26.91,0.0,0.0,0.0,0.0,0.0,0.0,0.0,15.0
26.87,0.0,0.0,0.0,0.0,0.0,0.0,0.0,15.0
26.93,0.0,0.0,0.0,0.0,0.0,0.0,0.0,15.0
26.93,0.0,0.0,0.0,0.0,0.0,0.0,0.0,15.0
26.91,0.0,0.0,0.0,0.0,0.0,0.0,0.0,15.0
26.87,0.0,0.0,0.0,0.0,0.0,0.0,0.0,15.0
26.97,0.0,0.0,0.0,0.0,0.0,0.0,0.0,15.0
26.93,0.0,0.0,0.0,0.0,0.0,0.0,0.0,15.0
26.91,0.0,0.0,0.0,0.0,0.0,0.0,0.0,15.0
26.93,0.0,0.0,0.0,0.0,0.0,0.0,0.0,15.0
26.97,0.0,0.0,0.0,0.0,0.0,0.0,0.0,15.0
26.97,0.0,0.0,0.0,0.0,0.0,0.0,0.0,15.0
26.91,0.0,0.0,0.0,0.0,0.0,0.0,0.0,15.0
26.91,0.0,0.0,0.0,0.0,0.0,0.0,0.0,15.0
26.93,0.0,0.0,0.0,0.0,0.0,0.0,0.0,15.0
26.99,0.0,0.0,0.0,0.0,0.0,0.0,0.0,15.0
26.93,0.0,0.0,0.0,0.0,0.0,0.0,0.0,15.0
26.93,0.0,0.0,0.0,0.0,0.0,0.0,0.0,15.0
26.99,0.0,0.0,0.0,0.0,0.0,0.0,0.0,15.0
26.99,0.0,0.0,0.0,0.0,0.0,149.0,0.0,15.0
26.93,0.0,0.0,0.0,0.0,0.0,0.0,0.0,15.0
26.99,0.0,0.0,0.0,0.0,0.0,0.0,0.0,15.0
26.97,0.0,0.0,0.0,0.0,0.0,0.0,0.0,15.0
26.93,0.0,0.0,0.0,0.0,0.0,0.0,0.0,15.0
26.87,0.0,0.0,0.0,0.0,0.0,0.0,0.0,15.0
26.99,0.0,0.0,0.0,0.0,0.0,0.0,0.0,15.0
26.99,0.0,0.0,0.0,0.0,0.0,0.0,0.0,15.0
26.97,0.0,0.0,0.0,0.0,0.0,0.0,0.0,15.0
26.97,0.0,0.0,0.0,0.0,0.0,0.0,0.0,15.0
26.97,0.0,0.0,0.0,0.0,0.0,0.0,0.0,15.0
27.03,0.0,0.0,0.0,0.0,0.0,0.0,0.0,15.0
27.09,0.0,0.0,0.0,0.0,0.0,0.0,0.0,15.0
26.99,0.0,0.0,0.0,0.0,0.0,0.0,0.0,15.0
27.03,0.0,0.0,0.0,0.0,0.0,0.0,0.0,15.0
27.03,0.0,0.0,0.0,0.0,0.0,0.0,0.0,15.0
26.99,0.0,0.0,0.0,0.0,0.0,0.0,0.0,15.0
26.99,0.0,0.0,0.0,0.0,0.0,0.0,0.0,15.0
27.03,0.0,0.0,0.0,0.0,0.0,0.0,0.0,15.0
27.03,0.0,0.0,0.0,0.0,0.0,0.0,0.0,15.0
27.05,0.0,0.0,0.0,0.0,0.0,0.0,0.0,15.0
27.09,0.0,0.0,0.0,0.0,0.0,0.0,0.0,15.0
27.05,0.0,0.0,0.0,0.0,0.0,0.0,0.0,15.0
27.11,0.0,0.0,0.0,0.0,0.0,0.0,0.0,15.0
26.99,0.0,0.0,0.0,0.0,0.0,0.0,0.0,15.0
27.03,0.0,0.0,0.0,0.0,0.0,0.0,0.0,15.0
27.05,0.0,0.0,0.0,0.0,0.0,0.0,0.0,15.0
26.97,0.0,0.0,0.0,0.0,0.0,0.0,0.0,15.0
26.99,0.0,0.0,0.0,0.0,0.0,0.0,0.0,15.0
26.99,0.0,0.0,0.0,0.0,0.0,0.0,0.0,15.0
27.03,0.0,0.0,0.0,0.0,0.0,0.0,0.0,15.0
27.03,0.0,0.0,0.0,0.0,0.0,0.0,0.0,15.0
27.03,0.0,0.0,0.0,0.0,0.0,0.0,0.0,15.0
27.03,0.0,0.0,0.0,0.0,0.0,0.0,0.0,15.0
27.03,0.0,0.0,0.0,0.0,0.0,0.0,0.0,15.0
26.97,0.0,0.0,0.0,0.0,0.0,0.0,0.0,15.0
27.05,0.0,0.0,0.0,0.0,0.0,0.0,0.0,15.0
27.05,0.0,0.0,0.0,0.0,0.0,0.0,0.0,15.0
26.97,0.0,0.0,0.0,0.0,0.0,0.0,0.0,15.0
27.03,0.0,0.0,0.0,0.0,0.0,0.0,0.0,15.0
26.99,0.0,0.0,0.0,0.0,0.0,0.0,0.0,15.0
26.99,0.0,0.0,0.0,0.0,0.0,0.0,0.0,15.0
27.03,0.0,0.0,0.0,0.0,0.0,0.0,0.0,15.0
27.05,0.0,0.0,0.0,0.0,0.0,0.0,0.0,15.0
27.03,0.0,0.0,0.0,0.0,0.0,0.0,0.0,15.0
27.03,0.0,0.0,0.0,0.0,0.0,0.0,0.0,15.0
27.03,0.0,0.0,0.0,0.0,0.0,0.0,0.0,15.0
27.05,0.0,0.0,0.0,0.0,0.0,0.0,0.0,15.0
27.03,0.0,0.0,0.0,0.0,0.0,0.0,0.0,15.0
27.03,0.0,0.0,0.0,0.0,0.0,0.0,0.0,15.0
27.05,0.0,0.0,0.0,0.0,0.0,0.0,0.0,15.0
27.03,0.0,0.0,0.0,0.0,0.0,0.0,0.0,15.0
27.05,0.0,0.0,0.0,0.0,0.0,0.0,0.0,15.0
26.97,0.0,0.0,0.0,0.0,0.0,0.0,0.0,15.0
26.99,0.0,0.0,0.0,0.0,0.0,0.0,0.0,15.0
26.97,0.0,0.0,0.0,0.0,0.0,0.0,0.0,15.0
26.99,0.0,0.0,0.0,0.0,0.0,0.0,0.0,15.0
27.03,0.0,0.0,0.0,0.0,0.0,0.0,0.0,15.0
26.97,0.0,0.0,0.0,0.0,0.0,0.0,0.0,15.0
26.97,0.0,0.0,0.0,0.0,0.0,0.0,0.0,15.0
26.97,0.0,0.0,0.0,0.0,0.0,0.0,0.0,15.0
26.93,0.0,0.0,0.0,0.0,0.0,0.0,0.0,15.0
26.93,0.0,0.0,0.0,0.0,0.0,0.0,0.0,15.0
26.97,0.0,0.0,0.0,0.0,0.0,0.0,0.0,15.0
26.93,0.0,0.0,0.0,0.0,0.0,0.0,0.0,15.0
26.97,0.0,0.0,0.0,0.0,0.0,0.0,0.0,15.0
26.97,0.0,0.0,0.0,0.0,0.0,0.0,0.0,15.0
26.93,0.0,0.0,0.0,0.0,0.0,0.0,0.0,15.0
26.91,0.0,0.0,0.0,0.0,0.0,0.0,0.0,15.0
26.93,0.0,0.0,0.0,0.0,0.0,0.0,0.0,15.0
26.91,0.0,0.0,0.0,0.0,0.0,0.0,0.0,15.0
26.91,0.0,0.0,0.0,0.0,0.0,0.0,0.0,15.0
26.99,0.0,0.0,0.0,0.0,0.0,0.0,0.0,15.0
26.97,0.0,0.0,0.0,0.0,0.0,0.0,0.0,15.0
26.93,0.0,0.0,0.0,0.0,0.0,0.0,0.0,15.0
26.97,0.0,0.0,0.0,0.0,0.0,0.0,0.0,15.0
26.93,0.0,0.0,0.0,0.0,0.0,0.0,0.0,15.0
26.97,0.0,0.0,0.0,0.0,0.0,0.0,0.0,15.0
27.03,0.0,0.0,0.0,0.0,0.0,0.0,0.0,15.0
26.99,0.0,0.0,0.0,0.0,0.0,0.0,0.0,15.0
27.03,0.0,0.0,0.0,0.0,0.0,0.0,0.0,15.0
26.99,0.0,0.0,0.0,0.0,0.0,0.0,0.0,15.0
27.03,0.0,0.0,0.0,0.0,0.0,0.0,0.0,15.0
26.93,0.0,0.0,0.0,0.0,0.0,0.0,0.0,16.0
26.99,0.0,0.0,0.0,0.0,0.0,0.0,0.0,16.0
27.03,0.0,0.0,0.0,0.0,0.0,0.0,0.0,16.0
27.03,0.0,0.0,0.0,0.0,0.0,0.0,0.0,16.0
27.05,0.0,0.0,0.0,0.0,0.0,0.0,0.0,16.0
27.15,0.0,0.0,0.0,0.0,0.0,0.0,0.0,16.0
27.17,0.0,0.0,0.0,0.0,0.0,0.0,0.0,16.0
27.03,0.0,0.0,0.0,0.0,0.0,0.0,0.0,16.0
26.99,0.0,0.0,0.0,0.0,0.0,0.0,0.0,16.0
26.99,0.0,0.0,0.0,0.0,0.0,0.0,0.0,16.0
26.97,0.0,0.0,0.0,0.0,0.0,0.0,0.0,16.0
27.03,0.0,0.0,0.0,0.0,0.0,0.0,0.0,16.0
27.05,0.0,0.0,0.0,0.0,0.0,0.0,0.0,22.0
27.11,0.0,0.0,0.0,0.0,0.0,0.0,0.0,33.0
27.03,0.0,0.0,0.0,0.0,0.0,0.0,0.0,39.0
27.05,0.0,0.0,0.0,0.0,0.0,0.0,0.0,43.0
27.05,0.0,0.0,0.0,0.0,0.0,0.0,0.0,48.0
26.99,0.0,0.0,0.0,0.0,0.0,0.0,0.0,52.0
27.05,0.0,0.0,0.0,0.0,0.0,0.0,0.0,65.0
27.03,0.0,0.0,0.0,0.0,0.0,0.0,0.0,75.0
27.05,0.0,0.0,0.0,0.0,0.0,0.0,0.0,85.0
27.03,0.0,0.0,0.0,0.0,0.0,0.0,0.0,94.0
27.03,0.0,0.0,0.0,0.0,0.0,0.0,0.0,95.0
26.99,0.0,0.0,0.0,0.0,0.0,0.0,0.0,95.0
26.97,0.0,0.0,0.0,0.0,0.0,0.0,0.0,95.0
26.99,0.0,0.0,0.0,0.0,0.0,0.0,0.0,95.0
27.03,0.0,0.0,0.0,0.0,0.0,0.0,0.0,95.0
27.09,0.0,0.0,0.0,0.0,0.0,0.0,0.0,95.0
27.05,0.0,0.0,0.0,0.0,0.0,0.0,0.0,95.0
27.05,0.0,0.0,0.0,0.0,0.0,0.0,0.0,95.0
26.99,0.0,0.0,0.0,0.0,0.0,0.0,0.0,95.0
27.05,0.0,0.0,0.0,0.0,0.0,0.0,0.0,95.0
27.03,0.0,0.0,0.0,0.0,0.0,0.0,0.0,95.0
27.05,0.0,0.0,0.0,0.0,0.0,0.0,0.0,95.0
27.05,0.0,0.0,0.0,0.0,0.0,0.0,0.0,100.0
26.97,0.0,0.0,0.0,0.0,0.0,0.0,0.0,100.0
26.97,0.0,0.0,0.0,0.0,0.0,0.0,5.0,100.0
27.03,0.0,0.0,0.0,0.0,0.0,0.0,2.0,100.0
26.99,0.0,0.0,0.0,0.0,0.0,0.0,13.0,100.0
27.03,0.0,0.0,0.0,0.0,0.0,0.0,18.0,100.0
27.03,0.0,0.0,0.0,0.0,0.0,0.0,17.0,100.0
26.93,0.0,0.0,0.0,0.0,0.0,0.0,14.0,100.0
27.09,0.0,0.0,0.0,0.0,0.0,0.0,10.0,100.0
27.05,0.0,0.0,0.0,0.0,0.0,0.0,20.0,100.0
27.03,0.0,0.0,0.0,0.0,0.0,0.0,20.0,100.0
27.05,0.0,0.0,0.0,0.0,0.0,0.0,21.0,100.0
27.03,0.0,0.0,0.0,0.0,0.0,0.0,17.0,100.0
27.11,0.0,0.0,0.0,0.0,0.0,0.0,19.0,100.0
27.15,0.0,0.0,0.0,0.0,0.0,0.0,22.0,100.0
27.23,0.0,0.0,0.0,0.0,0.0,0.0,27.0,100.0
27.15,0.0,0.0,0.0,0.0,0.0,0.0,24.0,100.0
27.15,0.0,0.0,0.0,0.0,0.0,0.0,24.0,100.0
27.15,0.0,0.0,0.0,0.0,0.0,0.0,30.0,100.0
27.17,0.0,0.0,0.0,0.0,0.0,0.0,23.0,100.0
27.03,0.0,0.0,0.0,0.0,0.0,0.0,22.0,100.0
26.99,0.0,0.0,0.0,0.0,0.0,0.0,24.0,100.0
27.03,0.0,0.0,0.0,0.0,0.0,0.0,31.0,100.0
26.97,0.0,0.0,0.0,0.0,0.0,0.0,27.0,100.0
26.97,0.0,0.0,0.0,0.0,0.0,0.0,22.0,100.0
26.99,0.0,0.0,0.0,0.0,0.0,0.0,27.0,100.0
27.05,0.0,0.0,0.0,0.0,0.0,0.0,20.0,100.0
26.87,0.0,0.0,0.0,0.0,0.0,0.0,23.0,100.0
26.91,0.0,0.0,0.0,0.0,0.0,0.0,27.0,100.0
26.91,0.0,0.0,0.0,0.0,0.0,0.0,19.0,100.0
26.93,0.0,0.0,0.0,0.0,0.0,0.0,27.0,100.0
26.87,0.0,0.0,0.0,0.0,0.0,0.0,26.0,100.0
26.91,0.0,0.0,0.0,0.0,0.0,0.0,30.0,100.0
26.93,0.0,0.0,0.0,0.0,0.0,0.0,18.0,100.0
26.87,0.0,0.0,0.0,0.0,0.0,0.0,20.0,100.0
26.93,0.0,0.0,0.0,0.0,0.0,0.0,21.0,100.0
26.77,0.0,0.0,0.0,0.0,0.0,0.0,27.0,100.0
26.85,0.0,0.0,0.0,0.0,0.0,0.0,21.0,100.0
26.87,0.0,0.0,0.0,0.0,0.0,0.0,18.0,100.0
26.87,0.0,0.0,0.0,0.0,0.0,0.0,16.0,100.0
26.93,0.0,0.0,0.0,0.0,0.0,0.0,15.0,100.0
26.99,0.0,0.0,0.0,0.0,0.0,0.0,16.0,100.0
26.91,0.0,0.0,0.0,0.0,0.0,0.0,21.0,100.0
26.91,0.0,0.0,0.0,0.0,0.0,0.0,19.0,100.0
27.03,0.0,0.0,0.0,0.0,0.0,0.0,19.0,100.0
26.93,0.0,0.0,0.0,0.0,0.0,0.0,17.0,100.0
26.97,0.0,0.0,0.0,0.0,0.0,0.0,10.0,100.0
26.97,0.0,0.0,0.0,0.0,0.0,0.0,18.0,100.0
26.99,0.0,0.0,0.0,0.0,0.0,0.0,18.0,100.0
27.03,0.0,0.0,0.0,0.0,0.0,0.0,21.0,100.0
27.05,0.0,0.0,0.0,0.0,0.0,0.0,13.0,100.0
27.05,0.0,0.0,0.0,0.0,0.0,0.0,26.0,100.0
27.15,0.0,0.0,0.0,0.0,0.0,0.0,19.0,100.0
27.11,0.0,0.0,0.0,0.0,0.0,0.0,15.0,100.0
27.11,0.0,0.0,0.0,0.0,0.0,0.0,15.0,100.0
27.05,0.0,0.0,0.0,0.0,0.0,0.0,10.0,100.0
27.05,0.0,0.0,0.0,0.0,0.0,0.0,20.0,100.0
27.05,0.0,0.0,0.0,0.0,0.0,0.0,18.0,100.0
27.03,0.0,0.0,0.0,0.0,0.0,0.0,11.0,100.0
26.93,0.0,0.0,0.0,0.0,0.0,0.0,14.0,100.0
27.09,0.0,0.0,0.0,0.0,0.0,0.0,11.0,100.0
26.97,0.0,0.0,0.0,0.0,0.0,0.0,15.0,100.0
26.97,0.0,0.0,0.0,0.0,0.0,0.0,13.0,100.0
26.97,0.0,0.0,0.0,0.0,0.0,0.0,10.0,100.0
26.99,0.0,0.0,0.0,0.0,0.0,0.0,12.0,100.0
27.03,0.0,0.0,0.0,0.0,0.0,0.0,15.0,100.0
26.99,0.0,0.0,0.0,0.0,0.0,0.0,12.0,100.0
26.99,0.0,0.0,0.0,0.0,0.0,0.0,18.0,100.0
26.99,0.0,0.0,0.0,0.0,0.0,0.0,20.0,100.0
27.03,0.0,0.0,0.0,0.0,0.0,0.0,19.0,100.0
26.97,0.0,0.0,0.0,0.0,0.0,0.0,1.0,15.0
27.17,0.0,0.0,0.0,0.0,0.0,0.0,0.0,15.0
27.23,0.0,0.0,0.0,0.0,0.0,0.0,0.0,15.0
27.29,0.0,0.0,0.0,0.0,0.0,0.0,0.0,15.0
27.25,0.0,0.0,0.0,0.0,0.0,0.0,0.0,15.0
27.25,0.0,0.0,0.0,0.0,0.0,0.0,0.0,15.0
27.29,0.0,0.0,0.0,0.0,0.0,0.0,0.0,15.0
27.41,0.0,0.0,0.0,0.0,0.0,0.0,0.0,15.0
27.87,0.0,0.0,0.0,0.0,0.0,0.0,0.0,15.0
27.99,0.0,0.0,0.0,0.0,0.0,0.0,0.0,15.0
27.31,0.0,0.0,0.0,0.0,0.0,0.0,0.0,15.0
27.29,0.0,0.0,0.0,0.0,0.0,0.0,0.0,15.0
27.23,0.0,0.0,0.0,0.0,0.0,0.0,0.0,15.0
27.29,0.0,0.0,0.0,0.0,0.0,0.0,0.0,15.0
27.23,0.0,0.0,0.0,0.0,0.0,0.0,0.0,15.0
27.25,0.0,0.0,0.0,0.0,0.0,0.0,0.0,15.0
27.15,0.0,0.0,0.0,0.0,0.0,0.0,0.0,15.0
27.05,0.0,0.0,0.0,0.0,0.0,0.0,0.0,15.0
27.09,0.0,0.0,0.0,0.0,0.0,0.0,0.0,15.0
27.05,0.0,0.0,0.0,0.0,0.0,0.0,0.0,15.0
27.11,0.0,0.0,0.0,0.0,0.0,0.0,0.0,15.0
27.11,0.0,0.0,0.0,0.0,0.0,0.0,0.0,15.0
27.29,0.0,0.0,0.0,0.0,0.0,0.0,0.0,15.0
27.31,0.0,0.0,0.0,0.0,0.0,0.0,0.0,15.0
27.31,0.0,0.0,0.0,0.0,0.0,0.0,0.0,15.0
27.47,0.0,0.0,0.0,0.0,0.0,0.0,0.0,15.0
27.53,0.0,0.0,0.0,0.0,0.0,0.0,0.0,15.0
27.63,0.0,0.0,0.0,0.0,0.0,0.0,0.0,15.0
27.59,0.0,0.0,0.0,0.0,0.0,0.0,0.0,15.0
27.63,0.0,0.0,0.0,0.0,0.0,0.0,0.0,15.0
27.59,0.0,0.0,0.0,0.0,0.0,0.0,0.0,15.0
27.61,0.0,0.0,0.0,0.0,0.0,0.0,0.0,15.0
27.61,0.0,0.0,0.0,0.0,0.0,0.0,0.0,15.0
27.59,0.0,0.0,0.0,0.0,0.0,0.0,0.0,15.0
27.59,0.0,0.0,0.0,0.0,0.0,0.0,0.0,15.0
27.55,0.0,0.0,0.0,0.0,0.0,0.0,0.0,15.0
27.53,0.0,0.0,0.0,0.0,0.0,0.0,0.0,15.0
27.49,0.0,0.0,0.0,0.0,0.0,0.0,0.0,15.0
27.41,0.0,0.0,0.0,0.0,0.0,0.0,0.0,15.0
27.41,0.0,0.0,0.0,0.0,0.0,0.0,0.0,15.0
27.43,0.0,0.0,0.0,0.0,0.0,0.0,0.0,15.0
27.37,0.0,0.0,0.0,0.0,0.0,0.0,0.0,15.0
27.37,0.0,0.0,0.0,0.0,0.0,0.0,0.0,15.0
27.17,0.0,0.0,0.0,0.0,0.0,0.0,0.0,15.0
27.11,0.0,0.0,0.0,0.0,0.0,0.0,0.0,15.0
27.11,0.0,0.0,0.0,0.0,0.0,0.0,0.0,15.0
27.21,0.0,0.0,0.0,0.0,0.0,0.0,0.0,15.0
27.03,0.0,0.0,0.0,0.0,0.0,0.0,0.0,15.0
26.73,0.0,0.0,0.0,0.0,0.0,0.0,0.0,15.0
26.67,0.0,0.0,0.0,0.0,0.0,0.0,0.0,15.0
26.53,0.0,0.0,0.0,0.0,0.0,0.0,0.0,15.0
26.49,0.0,0.0,0.0,0.0,0.0,0.0,0.0,15.0
26.43,0.0,0.0,0.0,0.0,0.0,0.0,0.0,21.0
26.41,0.0,0.0,0.0,0.0,0.0,0.0,0.0,31.0
26.49,0.0,0.0,0.0,0.0,0.0,0.0,0.0,44.0
26.53,0.0,0.0,0.0,0.0,0.0,0.0,0.0,54.0
26.55,0.0,0.0,0.0,0.0,0.0,0.0,0.0,63.0
26.71,0.0,0.0,0.0,0.0,0.0,0.0,0.0,72.0
26.67,0.0,0.0,0.0,0.0,0.0,0.0,0.0,81.0
26.61,0.0,0.0,0.0,0.0,0.0,0.0,0.0,91.0
26.55,0.0,20.0,0.0,0.0,0.0,0.0,126.0,100.0
26.55,0.0,0.0,0.0,0.0,0.0,0.0,533.0,100.0
26.61,0.0,144.0,0.0,0.0,0.0,0.0,622.0,100.0
26.59,0.0,149.0,0.0,0.0,0.0,0.0,686.0,100.0
26.59,0.0,149.0,0.0,0.0,0.0,0.0,690.0,100.0
26.59,0.0,144.0,0.0,0.0,0.0,0.0,692.0,100.0
26.61,0.0,14.0,0.0,0.0,0.0,0.0,525.0,100.0
26.61,0.0,123.0,0.0,0.0,0.0,0.0,538.0,100.0
26.61,0.0,64.0,0.0,0.0,0.0,0.0,547.0,100.0
26.61,0.0,0.0,0.0,0.0,0.0,0.0,564.0,100.0
26.61,0.0,0.0,0.0,0.0,0.0,0.0,607.0,100.0
26.59,0.0,96.0,0.0,0.0,0.0,0.0,602.0,100.0
26.65,0.0,124.0,0.0,0.0,0.0,0.0,612.0,100.0
26.61,0.0,112.0,0.0,0.0,0.0,0.0,575.0,100.0
26.49,0.0,147.0,0.0,0.0,0.0,0.0,703.0,100.0
26.59,0.0,208.0,0.0,0.0,0.0,0.0,917.0,100.0
26.59,0.0,230.0,0.0,0.0,0.0,0.0,950.0,100.0
26.55,0.0,240.0,0.0,0.0,0.0,0.0,998.0,100.0
26.61,0.0,244.0,0.0,0.0,0.0,0.0,1004.0,100.0
26.59,0.0,250.0,0.0,0.0,0.0,0.0,1037.0,100.0
26.65,0.0,194.0,0.0,0.0,0.0,0.0,1036.0,100.0
26.71,0.0,251.0,0.0,0.0,0.0,0.0,1049.0,100.0
26.65,0.0,257.0,0.0,0.0,0.0,0.0,1056.0,100.0
26.61,0.0,245.0,0.0,0.0,0.0,0.0,1065.0,100.0
26.61,0.0,251.0,0.0,0.0,0.0,0.0,1063.0,100.0
26.65,0.0,238.0,0.0,0.0,0.0,0.0,1065.0,100.0
26.65,0.0,261.0,0.0,0.0,0.0,0.0,1073.0,100.0
26.65,0.0,260.0,0.0,0.0,0.0,0.0,1065.0,100.0
26.65,0.0,256.0,0.0,0.0,0.0,0.0,1075.0,100.0
26.73,0.0,254.0,0.0,0.0,0.0,0.0,1068.0,100.0
26.61,0.0,262.0,0.0,0.0,0.0,0.0,1075.0,100.0
26.61,0.0,264.0,0.0,0.0,0.0,0.0,1090.0,100.0
26.65,0.0,256.0,0.0,0.0,0.0,0.0,1084.0,100.0
26.59,0.0,251.0,0.0,0.0,0.0,0.0,1114.0,100.0
26.55,0.0,247.0,0.0,0.0,0.0,0.0,1106.0,100.0
26.55,0.0,246.0,0.0,0.0,0.0,0.0,1127.0,100.0
26.61,0.0,246.0,0.0,0.0,0.0,0.0,1154.0,100.0
26.55,0.0,240.0,0.0,0.0,0.0,0.0,1178.0,100.0
26.53,0.0,237.0,0.0,0.0,0.0,0.0,1172.0,100.0
26.53,0.0,0.0,0.0,0.0,0.0,0.0,1205.0,100.0
26.61,0.0,208.0,0.0,0.0,0.0,0.0,1193.0,100.0
26.61,0.0,211.0,0.0,0.0,0.0,0.0,1196.0,100.0
26.65,0.0,214.0,0.0,0.0,0.0,0.0,1207.0,100.0
26.65,0.0,212.0,0.0,0.0,384.0,0.0,1211.0,100.0
26.61,0.0,212.0,0.0,0.0,0.0,0.0,1212.0,100.0
26.61,0.0,214.0,0.0,0.0,0.0,0.0,1216.0,100.0
26.71,0.0,192.0,0.0,0.0,0.0,0.0,1223.0,100.0
26.71,0.0,215.0,0.0,0.0,0.0,0.0,1212.0,100.0
26.67,0.0,211.0,0.0,0.0,0.0,0.0,1210.0,100.0
26.65,0.0,212.0,0.0,0.0,0.0,0.0,1205.0,100.0
26.61,0.0,221.0,0.0,0.0,0.0,0.0,1213.0,100.0
26.59,0.0,210.0,0.0,0.0,0.0,0.0,1212.0,100.0
26.61,0.0,218.0,0.0,0.0,0.0,0.0,1218.0,100.0
26.65,0.0,219.0,0.0,0.0,0.0,0.0,1219.0,100.0
26.61,0.0,106.0,0.0,0.0,0.0,0.0,1226.0,100.0
26.65,0.0,218.0,0.0,0.0,0.0,0.0,1224.0,100.0
26.67,0.0,219.0,0.0,0.0,0.0,0.0,1225.0,100.0
26.71,0.0,209.0,0.0,0.0,0.0,0.0,1227.0,100.0
26.61,0.0,0.0,0.0,0.0,0.0,0.0,1228.0,100.0
26.65,0.0,208.0,0.0,0.0,0.0,0.0,1228.0,100.0
26.65,0.0,205.0,0.0,0.0,0.0,0.0,1229.0,100.0
26.55,0.0,222.0,0.0,0.0,0.0,0.0,1232.0,100.0
26.59,0.0,128.0,0.0,0.0,0.0,0.0,1237.0,100.0
26.53,0.0,219.0,0.0,0.0,0.0,0.0,1232.0,100.0
26.49,0.0,218.0,0.0,0.0,0.0,0.0,1237.0,100.0
26.61,0.0,219.0,0.0,0.0,0.0,0.0,1249.0,100.0
26.61,0.0,219.0,0.0,0.0,0.0,0.0,1251.0,100.0
26.59,0.0,275.0,0.0,0.0,0.0,0.0,1248.0,100.0
26.55,0.0,228.0,0.0,0.0,0.0,0.0,1256.0,100.0
26.59,0.0,181.0,0.0,0.0,0.0,0.0,1261.0,100.0
26.59,0.0,222.0,0.0,0.0,0.0,0.0,1255.0,100.0
26.61,0.0,224.0,0.0,0.0,0.0,0.0,1245.0,100.0
26.59,0.0,0.0,0.0,0.0,0.0,0.0,1242.0,100.0
26.55,0.0,226.0,0.0,0.0,0.0,0.0,1249.0,100.0
26.55,0.0,227.0,0.0,0.0,0.0,0.0,1243.0,100.0
26.59,0.0,336.0,0.0,0.0,0.0,0.0,1246.0,100.0
26.59,0.0,217.0,0.0,0.0,0.0,0.0,1240.0,100.0
26.61,0.0,227.0,0.0,0.0,0.0,0.0,1233.0,100.0
26.65,0.0,214.0,0.0,0.0,0.0,0.0,1246.0,100.0
26.61,0.0,217.0,0.0,0.0,0.0,0.0,1229.0,100.0
26.67,0.0,225.0,0.0,0.0,0.0,0.0,1253.0,100.0
26.65,0.0,208.0,0.0,0.0,0.0,0.0,1247.0,100.0
26.67,0.0,224.0,0.0,0.0,0.0,0.0,1252.0,100.0
26.67,0.0,224.0,0.0,0.0,0.0,0.0,1255.0,100.0
26.71,0.0,225.0,0.0,0.0,0.0,0.0,1256.0,100.0
26.67,0.0,208.0,0.0,0.0,0.0,0.0,1261.0,100.0
26.67,0.0,0.0,0.0,0.0,0.0,0.0,1250.0,100.0
26.65,0.0,0.0,0.0,0.0,0.0,0.0,0.0,15.0
26.83,0.0,0.0,0.0,0.0,0.0,0.0,0.0,15.0
27.09,0.0,0.0,0.0,0.0,0.0,0.0,0.0,15.0
27.17,0.0,0.0,0.0,0.0,0.0,0.0,0.0,15.0
27.17,0.0,0.0,0.0,0.0,0.0,0.0,0.0,15.0
27.23,0.0,0.0,0.0,0.0,0.0,0.0,0.0,15.0
27.85,0.0,0.0,0.0,0.0,0.0,0.0,0.0,15.0
28.11,0.0,0.0,0.0,0.0,0.0,0.0,0.0,15.0
27.99,0.0,0.0,0.0,0.0,0.0,0.0,0.0,15.0
27.25,0.0,0.0,0.0,0.0,0.0,0.0,0.0,15.0
27.11,0.0,0.0,0.0,0.0,0.0,0.0,0.0,15.0
27.11,0.0,0.0,0.0,0.0,0.0,0.0,0.0,15.0
27.25,0.0,0.0,0.0,0.0,0.0,0.0,0.0,15.0
27.23,0.0,0.0,0.0,0.0,0.0,0.0,0.0,15.0
27.25,0.0,0.0,0.0,0.0,2.0,0.0,0.0,15.0
27.29,0.0,0.0,0.0,0.0,0.0,0.0,0.0,15.0
27.17,0.0,0.0,0.0,0.0,0.0,0.0,0.0,15.0
27.25,0.0,0.0,0.0,0.0,0.0,0.0,0.0,15.0
27.21,0.0,0.0,0.0,0.0,0.0,0.0,0.0,15.0
27.15,0.0,0.0,0.0,0.0,0.0,0.0,0.0,15.0
27.17,0.0,0.0,0.0,0.0,0.0,0.0,0.0,15.0
27.17,0.0,0.0,0.0,0.0,0.0,0.0,0.0,15.0
27.17,0.0,0.0,0.0,0.0,0.0,0.0,0.0,15.0
27.25,0.0,0.0,0.0,0.0,0.0,0.0,0.0,15.0
27.23,0.0,0.0,0.0,0.0,0.0,0.0,0.0,15.0
27.29,0.0,0.0,0.0,0.0,0.0,0.0,0.0,15.0
27.61,0.0,0.0,0.0,0.0,0.0,0.0,0.0,15.0
27.67,0.0,0.0,0.0,0.0,0.0,0.0,0.0,15.0
27.87,0.0,0.0,0.0,0.0,0.0,0.0,0.0,15.0
27.87,0.0,0.0,0.0,0.0,0.0,0.0,0.0,15.0
27.87,0.0,0.0,0.0,0.0,0.0,0.0,0.0,15.0
27.85,0.0,0.0,0.0,0.0,0.0,0.0,0.0,15.0
27.85,0.0,0.0,0.0,0.0,0.0,0.0,0.0,15.0
27.81,0.0,0.0,0.0,0.0,0.0,0.0,0.0,15.0
27.85,0.0,0.0,0.0,0.0,0.0,0.0,0.0,15.0
27.79,0.0,0.0,0.0,0.0,0.0,0.0,0.0,15.0
27.73,0.0,0.0,0.0,0.0,0.0,0.0,0.0,15.0
27.67,0.0,0.0,0.0,0.0,0.0,0.0,0.0,15.0
27.67,0.0,0.0,0.0,0.0,0.0,0.0,0.0,15.0
27.67,0.0,0.0,0.0,0.0,0.0,0.0,0.0,15.0
27.67,0.0,0.0,0.0,0.0,0.0,0.0,0.0,15.0
27.67,0.0,0.0,0.0,0.0,0.0,0.0,0.0,15.0
27.25,0.0,0.0,0.0,0.0,0.0,0.0,0.0,15.0
27.25,0.0,0.0,0.0,0.0,0.0,0.0,0.0,15.0
27.25,0.0,0.0,0.0,0.0,0.0,0.0,0.0,15.0
27.41,0.0,0.0,0.0,0.0,0.0,0.0,0.0,15.0
27.99,0.0,0.0,0.0,0.0,0.0,0.0,0.0,15.0
30.11,0.0,0.0,0.0,0.0,0.0,0.0,0.0,15.0
33.77,0.0,0.0,0.0,0.0,0.0,0.0,0.0,15.0
34.13,0.0,0.0,0.0,0.0,0.0,0.0,0.0,22.0
34.51,0.0,0.0,0.0,0.0,0.0,0.0,0.0,32.0
34.81,0.0,0.0,0.0,0.0,0.0,0.0,0.0,41.0
35.01,0.0,0.0,0.0,0.0,0.0,0.0,0.0,51.0
35.51,0.0,0.0,0.0,0.0,0.0,0.0,15.0,61.0
35.37,0.0,639.0,0.0,0.0,0.0,0.0,1113.0,73.0
35.15,0.0,679.0,0.0,0.0,0.0,0.0,2123.0,83.0
35.09,0.0,708.0,0.0,0.0,0.0,0.0,2197.0,86.0
35.13,0.0,629.0,0.0,0.0,0.0,0.0,1874.0,86.0
35.23,0.0,636.0,0.0,0.0,0.0,0.0,1785.0,86.0
35.09,0.0,635.0,0.0,0.0,0.0,0.0,1744.0,86.0
35.13,0.0,634.0,0.0,0.0,0.0,0.0,1777.0,86.0
35.09,0.0,624.0,0.0,0.0,0.0,0.0,1782.0,86.0
35.09,0.0,633.0,0.0,0.0,0.0,0.0,1797.0,86.0
35.09,0.0,621.0,0.0,0.0,0.0,0.0,1792.0,86.0
35.19,0.0,648.0,0.0,0.0,0.0,0.0,1723.0,86.0
35.07,0.0,656.0,0.0,0.0,0.0,0.0,1696.0,86.0
35.13,0.0,657.0,0.0,0.0,0.0,0.0,1702.0,86.0
35.09,0.0,677.0,0.0,0.0,0.0,0.0,1685.0,86.0
35.09,0.0,682.0,0.0,0.0,18.0,0.0,1688.0,86.0
35.15,0.0,682.0,0.0,0.0,36.0,0.0,1685.0,86.0
35.15,0.0,688.0,0.0,0.0,31.0,0.0,1714.0,86.0
35.23,0.0,679.0,0.0,0.0,53.0,0.0,1730.0,86.0
35.15,0.0,681.0,0.0,0.0,42.0,0.0,1749.0,86.0
35.19,0.0,686.0,0.0,0.0,50.0,0.0,1748.0,86.0
35.27,0.0,687.0,0.0,0.0,51.0,0.0,1750.0,86.0
35.19,0.0,672.0,0.0,0.0,49.0,0.0,1761.0,86.0
35.29,0.0,683.0,0.0,0.0,35.0,0.0,1760.0,86.0
35.31,0.0,691.0,32.0,0.0,34.0,0.0,1782.0,90.0
35.21,0.0,800.0,0.0,0.0,45.0,0.0,2069.0,90.0
35.23,0.0,773.0,0.0,0.0,20.0,0.0,2005.0,94.0
35.27,0.0,782.0,0.0,0.0,16.0,0.0,2003.0,100.0
35.23,0.0,784.0,0.0,0.0,27.0,0.0,2006.0,100.0
35.29,0.0,770.0,0.0,0.0,14.0,0.0,2014.0,100.0
35.23,0.0,784.0,0.0,0.0,29.0,0.0,2011.0,100.0
35.27,0.0,785.0,0.0,0.0,24.0,0.0,2017.0,100.0
35.23,0.0,779.0,0.0,0.0,0.0,0.0,2019.0,100.0
35.35,0.0,726.0,0.0,0.0,0.0,0.0,1861.0,100.0
35.29,0.0,511.0,0.0,0.0,0.0,0.0,1411.0,100.0
35.35,0.0,501.0,0.0,0.0,0.0,0.0,1420.0,100.0
35.29,0.0,493.0,0.0,0.0,0.0,0.0,1396.0,100.0
35.31,0.0,496.0,0.0,0.0,0.0,0.0,1401.0,100.0
35.37,0.0,495.0,0.0,0.0,0.0,0.0,1390.0,100.0
35.39,0.0,484.0,0.0,0.0,0.0,0.0,1394.0,100.0
35.31,0.0,467.0,0.0,0.0,0.0,0.0,1400.0,100.0
35.29,0.0,360.0,0.0,0.0,332.0,0.0,1396.0,100.0
35.23,0.0,272.0,0.0,0.0,0.0,0.0,1458.0,100.0
35.21,0.0,191.0,0.0,0.0,0.0,0.0,1465.0,100.0
35.23,0.0,64.0,0.0,0.0,0.0,0.0,1521.0,100.0
35.27,0.0,0.0,0.0,0.0,0.0,0.0,1548.0,100.0
35.29,0.0,0.0,0.0,0.0,0.0,0.0,1591.0,100.0
35.23,0.0,0.0,0.0,0.0,0.0,0.0,1617.0,100.0
35.31,0.0,0.0,0.0,0.0,0.0,0.0,1634.0,100.0
35.29,0.0,0.0,0.0,0.0,0.0,0.0,1639.0,100.0
35.37,0.0,0.0,0.0,0.0,0.0,0.0,1627.0,100.0
35.39,0.0,0.0,0.0,0.0,0.0,0.0,1653.0,100.0
35.35,0.0,0.0,0.0,0.0,0.0,0.0,1649.0,100.0
35.39,0.0,0.0,0.0,0.0,0.0,0.0,1654.0,100.0
35.37,0.0,0.0,0.0,0.0,0.0,0.0,1658.0,100.0
35.37,0.0,0.0,0.0,0.0,0.0,0.0,1659.0,100.0
35.37,0.0,0.0,0.0,0.0,0.0,0.0,1650.0,100.0
35.39,0.0,0.0,0.0,0.0,0.0,0.0,1653.0,100.0
35.37,0.0,0.0,0.0,0.0,0.0,0.0,1661.0,100.0
35.45,0.0,0.0,0.0,0.0,0.0,0.0,1661.0,100.0
35.37,0.0,0.0,0.0,0.0,0.0,0.0,1662.0,100.0
35.39,0.0,0.0,0.0,0.0,0.0,0.0,1661.0,100.0
35.43,0.0,0.0,0.0,0.0,0.0,0.0,1656.0,100.0
35.39,0.0,0.0,0.0,0.0,0.0,0.0,1663.0,100.0
35.43,0.0,0.0,0.0,0.0,0.0,0.0,1661.0,100.0
35.43,0.0,0.0,0.0,0.0,0.0,0.0,1663.0,100.0
35.39,0.0,0.0,0.0,0.0,0.0,0.0,1635.0,100.0
35.43,0.0,0.0,0.0,0.0,0.0,0.0,1643.0,100.0
35.45,0.0,0.0,0.0,0.0,0.0,0.0,1641.0,100.0
35.45,0.0,0.0,0.0,0.0,0.0,0.0,1641.0,100.0
35.43,0.0,0.0,0.0,0.0,0.0,0.0,1640.0,100.0
35.31,0.0,0.0,0.0,0.0,0.0,0.0,1640.0,100.0
35.31,0.0,0.0,0.0,0.0,0.0,0.0,1647.0,100.0
35.39,0.0,0.0,0.0,0.0,0.0,0.0,1646.0,100.0
35.37,0.0,0.0,0.0,0.0,0.0,0.0,1638.0,100.0
35.43,0.0,0.0,0.0,0.0,0.0,0.0,1647.0,100.0
35.43,0.0,0.0,0.0,0.0,0.0,0.0,1644.0,100.0
35.37,0.0,0.0,0.0,0.0,0.0,0.0,1640.0,100.0
35.39,0.0,0.0,0.0,0.0,0.0,0.0,1647.0,100.0
35.39,0.0,0.0,0.0,0.0,0.0,0.0,1648.0,100.0
35.39,0.0,0.0,0.0,0.0,0.0,0.0,1648.0,100.0
35.47,0.0,0.0,0.0,0.0,0.0,0.0,1647.0,100.0
35.45,0.0,0.0,0.0,0.0,0.0,0.0,1650.0,100.0
35.51,0.0,0.0,0.0,0.0,0.0,0.0,1647.0,100.0
35.45,0.0,0.0,0.0,0.0,0.0,0.0,1646.0,100.0
35.39,0.0,0.0,0.0,0.0,0.0,0.0,1652.0,100.0
35.37,0.0,0.0,0.0,0.0,0.0,0.0,1649.0,100.0
35.37,0.0,0.0,0.0,0.0,0.0,0.0,1643.0,100.0
35.47,0.0,0.0,0.0,0.0,0.0,0.0,1643.0,100.0
35.47,0.0,0.0,0.0,0.0,0.0,0.0,1641.0,100.0
35.37,0.0,0.0,0.0,0.0,0.0,0.0,1633.0,100.0
35.43,0.0,0.0,0.0,0.0,0.0,0.0,1632.0,100.0
35.47,0.0,0.0,0.0,0.0,0.0,0.0,1632.0,15.0
35.27,0.0,0.0,0.0,0.0,0.0,0.0,153.0,15.0
34.55,0.0,0.0,0.0,0.0,0.0,0.0,0.0,15.0
27.93,0.0,0.0,0.0,0.0,0.0,0.0,0.0,15.0
27.67,0.0,0.0,0.0,0.0,0.0,0.0,0.0,15.0
27.63,0.0,0.0,0.0,0.0,0.0,0.0,0.0,15.0
28.01,0.0,0.0,0.0,0.0,0.0,0.0,0.0,15.0
28.07,0.0,0.0,0.0,0.0,0.0,0.0,0.0,15.0
28.01,0.0,0.0,0.0,0.0,0.0,0.0,0.0,15.0
27.93,0.0,0.0,0.0,0.0,0.0,0.0,0.0,15.0
28.11,0.0,0.0,0.0,0.0,0.0,0.0,0.0,15.0
27.53,0.0,0.0,0.0,0.0,0.0,0.0,0.0,15.0
27.61,0.0,0.0,0.0,0.0,0.0,0.0,0.0,15.0
27.59,0.0,0.0,0.0,0.0,0.0,0.0,0.0,15.0
27.55,0.0,0.0,0.0,0.0,0.0,0.0,0.0,15.0
27.53,0.0,0.0,0.0,0.0,0.0,0.0,0.0,15.0
27.55,0.0,0.0,0.0,0.0,0.0,0.0,0.0,15.0
27.53,0.0,0.0,0.0,0.0,0.0,0.0,0.0,15.0
27.47,0.0,0.0,0.0,0.0,0.0,0.0,0.0,15.0
27.55,0.0,0.0,0.0,0.0,0.0,0.0,0.0,15.0
27.29,0.0,0.0,0.0,0.0,0.0,0.0,0.0,15.0
27.29,0.0,0.0,0.0,0.0,0.0,0.0,0.0,15.0
27.23,0.0,0.0,0.0,0.0,0.0,0.0,0.0,15.0
27.31,0.0,0.0,0.0,0.0,0.0,0.0,0.0,15.0
27.25,0.0,0.0,0.0,0.0,0.0,0.0,0.0,15.0
27.31,0.0,0.0,0.0,0.0,0.0,0.0,0.0,15.0
27.35,0.0,0.0,0.0,0.0,0.0,0.0,0.0,15.0
27.29,0.0,0.0,0.0,0.0,0.0,0.0,0.0,15.0
27.35,0.0,0.0,0.0,0.0,0.0,0.0,0.0,15.0
27.43,0.0,0.0,0.0,0.0,0.0,0.0,0.0,15.0
27.43,0.0,0.0,0.0,0.0,0.0,0.0,0.0,15.0
27.37,0.0,0.0,0.0,0.0,0.0,0.0,0.0,15.0
27.41,0.0,0.0,0.0,0.0,0.0,0.0,0.0,15.0
27.35,0.0,0.0,0.0,0.0,0.0,0.0,0.0,15.0
27.35,0.0,0.0,0.0,0.0,0.0,0.0,0.0,15.0
27.35,0.0,0.0,0.0,0.0,0.0,0.0,0.0,15.0
27.31,0.0,0.0,0.0,0.0,0.0,0.0,0.0,15.0
27.35,0.0,0.0,0.0,0.0,0.0,0.0,0.0,15.0
27.35,0.0,0.0,0.0,0.0,0.0,0.0,0.0,15.0
27.29,0.0,0.0,0.0,0.0,0.0,0.0,0.0,15.0
27.31,0.0,0.0,0.0,0.0,0.0,0.0,0.0,15.0
27.35,0.0,0.0,0.0,0.0,0.0,0.0,0.0,15.0
27.35,0.0,0.0,0.0,0.0,0.0,0.0,0.0,15.0
27.31,0.0,0.0,0.0,0.0,0.0,0.0,0.0,15.0
27.29,0.0,0.0,0.0,0.0,0.0,0.0,0.0,15.0
27.11,0.0,0.0,0.0,0.0,0.0,0.0,0.0,15.0
27.09,0.0,0.0,0.0,0.0,0.0,0.0,0.0,15.0
26.91,0.0,0.0,0.0,0.0,0.0,0.0,0.0,15.0
26.87,0.0,0.0,0.0,0.0,0.0,0.0,0.0,16.0
26.83,0.0,0.0,0.0,0.0,0.0,0.0,0.0,27.0
26.79,0.0,0.0,0.0,0.0,0.0,0.0,0.0,38.0
26.91,0.0,0.0,0.0,0.0,0.0,0.0,0.0,48.0
27.11,0.0,0.0,0.0,0.0,0.0,0.0,0.0,56.0
27.09,0.0,0.0,0.0,0.0,0.0,0.0,0.0,56.0
27.11,0.0,0.0,0.0,0.0,0.0,0.0,0.0,62.0
27.11,0.0,0.0,0.0,0.0,0.0,0.0,0.0,71.0
26.97,0.0,0.0,0.0,0.0,0.0,0.0,0.0,82.0
26.91,0.0,0.0,0.0,0.0,0.0,0.0,0.0,91.0
26.87,0.0,0.0,0.0,0.0,0.0,0.0,502.0,100.0
26.93,0.0,0.0,170.0,0.0,0.0,35.0,546.0,100.0
26.93,0.0,0.0,251.0,0.0,0.0,31.0,561.0,100.0
26.97,0.0,0.0,354.0,0.0,0.0,65.0,595.0,100.0
26.91,0.0,0.0,352.0,0.0,0.0,76.0,567.0,100.0
26.91,0.0,0.0,393.0,0.0,0.0,80.0,574.0,100.0
26.93,0.0,0.0,416.0,0.0,0.0,89.0,575.0,100.0
26.93,0.0,0.0,477.0,0.0,0.0,79.0,600.0,100.0
26.87,0.0,0.0,478.0,0.0,0.0,123.0,590.0,100.0
26.91,0.0,0.0,491.0,0.0,0.0,113.0,595.0,100.0
26.91,0.0,0.0,528.0,0.0,0.0,114.0,580.0,100.0
26.93,0.0,0.0,541.0,0.0,0.0,70.0,586.0,100.0
26.97,0.0,0.0,549.0,0.0,0.0,134.0,595.0,100.0
26.85,0.0,0.0,558.0,0.0,0.0,144.0,604.0,100.0
26.93,0.0,0.0,578.0,0.0,0.0,147.0,600.0,100.0
26.85,0.0,0.0,588.0,0.0,0.0,145.0,600.0,100.0
26.87,0.0,0.0,594.0,0.0,0.0,155.0,599.0,100.0
26.83,0.0,0.0,599.0,0.0,0.0,158.0,582.0,100.0
26.85,0.0,0.0,609.0,0.0,0.0,161.0,580.0,100.0
26.83,0.0,0.0,634.0,0.0,0.0,144.0,589.0,100.0
26.79,0.0,0.0,642.0,0.0,0.0,144.0,592.0,100.0
26.91,0.0,0.0,656.0,0.0,0.0,157.0,596.0,100.0
26.85,0.0,0.0,656.0,0.0,0.0,141.0,599.0,100.0
26.93,0.0,0.0,655.0,0.0,0.0,93.0,604.0,100.0
26.91,0.0,0.0,668.0,0.0,0.0,176.0,601.0,100.0
26.93,0.0,0.0,674.0,0.0,0.0,178.0,620.0,100.0
26.85,0.0,0.0,675.0,0.0,0.0,179.0,617.0,100.0
26.91,0.0,0.0,679.0,0.0,0.0,189.0,618.0,100.0
26.91,0.0,0.0,687.0,0.0,0.0,198.0,618.0,100.0
26.87,0.0,0.0,686.0,0.0,0.0,199.0,620.0,100.0
26.83,0.0,0.0,688.0,0.0,0.0,208.0,600.0,100.0
26.85,0.0,0.0,672.0,0.0,0.0,211.0,604.0,100.0
26.85,0.0,0.0,675.0,0.0,0.0,214.0,615.0,100.0
26.85,0.0,0.0,670.0,0.0,0.0,227.0,615.0,100.0
26.91,0.0,0.0,658.0,0.0,0.0,202.0,615.0,100.0
26.87,0.0,0.0,670.0,0.0,0.0,202.0,614.0,100.0
26.87,0.0,0.0,689.0,0.0,0.0,193.0,620.0,100.0
26.97,0.0,0.0,653.0,0.0,0.0,190.0,621.0,100.0
26.85,0.0,0.0,643.0,0.0,0.0,182.0,636.0,100.0
26.83,0.0,0.0,655.0,0.0,0.0,191.0,628.0,100.0
26.87,0.0,0.0,623.0,0.0,0.0,164.0,623.0,100.0
26.87,0.0,0.0,641.0,0.0,0.0,165.0,629.0,100.0
26.87,0.0,0.0,637.0,0.0,0.0,173.0,627.0,100.0
26.93,0.0,0.0,643.0,0.0,0.0,171.0,630.0,100.0
26.97,0.0,0.0,646.0,0.0,0.0,176.0,630.0,100.0
26.85,0.0,0.0,650.0,0.0,0.0,178.0,632.0,100.0
26.91,0.0,0.0,653.0,0.0,0.0,183.0,634.0,100.0
26.97,0.0,0.0,649.0,0.0,0.0,183.0,637.0,100.0
26.99,0.0,0.0,647.0,0.0,0.0,181.0,629.0,100.0
27.03,0.0,0.0,560.0,0.0,0.0,188.0,631.0,100.0
26.93,0.0,0.0,650.0,0.0,0.0,186.0,632.0,100.0
26.93,0.0,0.0,656.0,0.0,0.0,144.0,628.0,100.0
26.97,0.0,0.0,656.0,0.0,0.0,186.0,628.0,100.0
26.91,0.0,0.0,653.0,0.0,0.0,187.0,628.0,100.0
26.99,0.0,0.0,655.0,0.0,0.0,191.0,639.0,100.0
26.97,0.0,0.0,656.0,0.0,0.0,191.0,648.0,100.0
26.93,0.0,0.0,655.0,0.0,0.0,189.0,644.0,100.0
26.97,0.0,0.0,658.0,0.0,0.0,193.0,645.0,100.0
26.87,0.0,0.0,656.0,0.0,0.0,189.0,645.0,100.0
26.87,0.0,0.0,658.0,0.0,0.0,193.0,645.0,100.0
26.91,0.0,0.0,658.0,0.0,0.0,197.0,644.0,100.0
26.93,0.0,0.0,656.0,0.0,0.0,197.0,643.0,100.0
26.97,0.0,0.0,656.0,0.0,0.0,199.0,643.0,100.0
27.03,0.0,0.0,660.0,0.0,0.0,206.0,650.0,100.0
26.91,0.0,0.0,656.0,0.0,0.0,194.0,652.0,100.0
26.91,0.0,0.0,642.0,0.0,0.0,199.0,644.0,100.0
26.87,0.0,0.0,660.0,0.0,0.0,208.0,646.0,100.0
26.87,0.0,0.0,714.0,0.0,0.0,205.0,644.0,100.0
26.87,0.0,0.0,655.0,0.0,0.0,206.0,649.0,100.0
26.85,0.0,0.0,928.0,0.0,0.0,214.0,649.0,100.0
26.87,0.0,0.0,685.0,0.0,0.0,208.0,657.0,100.0
26.85,0.0,0.0,662.0,0.0,0.0,207.0,651.0,100.0
26.93,0.0,0.0,662.0,0.0,0.0,192.0,646.0,100.0
26.91,0.0,0.0,662.0,0.0,0.0,198.0,651.0,100.0
26.93,0.0,0.0,659.0,0.0,0.0,195.0,649.0,100.0
26.93,0.0,0.0,662.0,0.0,0.0,199.0,650.0,100.0
26.97,0.0,0.0,667.0,0.0,0.0,206.0,646.0,100.0
26.87,0.0,0.0,670.0,0.0,0.0,203.0,646.0,100.0
26.87,0.0,0.0,659.0,0.0,0.0,191.0,640.0,100.0
26.87,0.0,0.0,666.0,0.0,0.0,197.0,640.0,100.0
26.85,0.0,0.0,665.0,0.0,0.0,206.0,645.0,100.0
26.85,0.0,0.0,658.0,0.0,0.0,193.0,640.0,100.0
26.87,0.0,0.0,669.0,0.0,0.0,189.0,644.0,100.0
26.85,0.0,0.0,667.0,0.0,0.0,208.0,649.0,100.0
26.85,0.0,0.0,666.0,0.0,0.0,199.0,647.0,100.0
26.93,0.0,0.0,672.0,0.0,0.0,207.0,648.0,100.0
26.93,0.0,0.0,654.0,0.0,0.0,208.0,643.0,100.0
26.91,0.0,0.0,670.0,0.0,0.0,208.0,646.0,100.0
26.97,0.0,0.0,668.0,0.0,0.0,107.0,642.0,100.0
26.85,0.0,0.0,0.0,0.0,0.0,0.0,0.0,15.0
27.11,0.0,0.0,0.0,0.0,0.0,0.0,0.0,15.0
27.15,0.0,0.0,0.0,0.0,0.0,0.0,0.0,15.0
27.11,0.0,0.0,0.0,0.0,0.0,0.0,0.0,15.0
27.37,0.0,0.0,0.0,6.0,0.0,0.0,0.0,15.0
27.49,0.0,0.0,0.0,0.0,0.0,96.0,0.0,15.0
27.47,0.0,0.0,0.0,0.0,0.0,0.0,0.0,15.0
27.37,0.0,0.0,0.0,0.0,0.0,0.0,0.0,15.0
27.11,0.0,0.0,0.0,0.0,0.0,0.0,0.0,15.0
27.11,0.0,0.0,0.0,0.0,0.0,0.0,0.0,15.0
27.11,0.0,0.0,0.0,0.0,0.0,0.0,0.0,15.0
27.15,0.0,0.0,0.0,0.0,0.0,0.0,0.0,15.0
27.17,0.0,0.0,0.0,0.0,0.0,0.0,0.0,15.0
27.15,0.0,0.0,0.0,0.0,0.0,0.0,0.0,15.0
27.21,0.0,0.0,0.0,0.0,0.0,0.0,0.0,15.0
27.25,0.0,0.0,0.0,0.0,0.0,0.0,0.0,15.0
27.23,0.0,0.0,0.0,0.0,0.0,0.0,0.0,15.0
27.25,0.0,0.0,0.0,0.0,0.0,0.0,0.0,15.0
27.29,0.0,0.0,0.0,0.0,0.0,0.0,0.0,15.0
27.25,0.0,0.0,0.0,0.0,0.0,0.0,0.0,15.0
27.23,0.0,0.0,0.0,0.0,0.0,0.0,0.0,15.0
27.29,0.0,0.0,0.0,0.0,0.0,0.0,0.0,15.0
27.25,0.0,0.0,0.0,0.0,0.0,0.0,0.0,15.0
27.17,0.0,0.0,0.0,0.0,0.0,0.0,0.0,15.0
27.25,0.0,0.0,0.0,0.0,0.0,0.0,0.0,15.0
27.23,0.0,0.0,0.0,0.0,0.0,0.0,0.0,15.0
27.29,0.0,0.0,0.0,0.0,0.0,0.0,0.0,15.0
27.29,0.0,0.0,0.0,0.0,0.0,0.0,0.0,15.0
27.25,0.0,0.0,0.0,0.0,0.0,0.0,0.0,15.0
27.29,0.0,0.0,0.0,0.0,0.0,0.0,0.0,15.0
27.29,0.0,0.0,0.0,0.0,0.0,0.0,0.0,15.0
27.29,0.0,0.0,0.0,0.0,0.0,0.0,0.0,15.0
27.25,0.0,0.0,0.0,0.0,0.0,0.0,0.0,15.0
27.29,0.0,0.0,0.0,0.0,0.0,0.0,0.0,15.0
27.25,0.0,0.0,0.0,0.0,0.0,0.0,0.0,15.0
27.23,0.0,0.0,0.0,0.0,0.0,0.0,0.0,15.0
27.25,0.0,0.0,0.0,0.0,0.0,0.0,0.0,15.0
27.23,0.0,0.0,0.0,0.0,0.0,0.0,0.0,15.0
27.25,0.0,0.0,0.0,0.0,0.0,0.0,0.0,15.0
27.23,0.0,0.0,0.0,0.0,0.0,0.0,0.0,15.0
27.21,0.0,0.0,0.0,0.0,0.0,0.0,0.0,15.0
27.21,0.0,0.0,0.0,0.0,0.0,0.0,0.0,15.0
27.25,0.0,0.0,0.0,0.0,0.0,0.0,0.0,15.0
27.15,0.0,0.0,0.0,0.0,0.0,0.0,0.0,15.0
27.03,0.0,0.0,0.0,0.0,0.0,0.0,0.0,15.0
26.77,0.0,0.0,0.0,0.0,0.0,0.0,0.0,15.0
26.55,0.0,0.0,0.0,0.0,0.0,0.0,0.0,15.0
26.55,0.0,0.0,0.0,0.0,0.0,0.0,0.0,15.0
26.53,0.0,0.0,0.0,0.0,0.0,0.0,0.0,21.0
26.61,0.0,0.0,0.0,0.0,0.0,0.0,0.0,31.0
26.67,0.0,0.0,0.0,0.0,0.0,0.0,0.0,40.0
26.67,0.0,0.0,0.0,0.0,0.0,0.0,0.0,51.0
26.77,0.0,0.0,0.0,0.0,0.0,0.0,0.0,61.0
26.77,0.0,0.0,0.0,0.0,0.0,0.0,0.0,70.0
26.77,0.0,0.0,0.0,0.0,0.0,0.0,1745.0,81.0
26.77,0.0,70.0,0.0,0.0,0.0,0.0,2362.0,85.0
26.79,0.0,71.0,0.0,0.0,0.0,0.0,2418.0,87.0
26.73,0.0,137.0,0.0,0.0,0.0,0.0,2359.0,87.0
26.83,0.0,81.0,0.0,0.0,0.0,0.0,2338.0,87.0
26.79,0.0,34.0,0.0,0.0,0.0,0.0,2450.0,87.0
26.85,0.0,16.0,0.0,0.0,0.0,0.0,2504.0,87.0
26.83,0.0,0.0,0.0,0.0,0.0,0.0,2580.0,87.0
26.83,0.0,0.0,0.0,0.0,0.0,0.0,2541.0,87.0
26.87,0.0,0.0,0.0,0.0,0.0,0.0,2484.0,87.0
26.83,0.0,0.0,0.0,0.0,0.0,0.0,2374.0,87.0
26.83,0.0,0.0,0.0,0.0,45.0,0.0,2203.0,87.0
26.71,0.0,49.0,0.0,0.0,29.0,0.0,2065.0,87.0
26.79,0.0,95.0,0.0,0.0,207.0,0.0,1987.0,87.0
26.79,0.0,125.0,0.0,0.0,320.0,0.0,1982.0,87.0
26.77,0.0,135.0,0.0,48.0,425.0,0.0,1937.0,87.0
26.85,0.0,121.0,0.0,0.0,523.0,0.0,1942.0,87.0
26.79,0.0,144.0,0.0,0.0,576.0,0.0,2040.0,87.0
26.83,0.0,151.0,0.0,0.0,592.0,0.0,2081.0,87.0
26.83,0.0,162.0,0.0,0.0,724.0,0.0,2094.0,87.0
26.85,0.0,161.0,0.0,0.0,610.0,0.0,2105.0,87.0
26.79,0.0,162.0,0.0,0.0,605.0,0.0,2113.0,89.0
26.83,0.0,157.0,0.0,0.0,615.0,0.0,2120.0,89.0
26.83,0.0,162.0,0.0,0.0,618.0,0.0,2127.0,89.0
26.79,0.0,138.0,0.0,0.0,607.0,0.0,2092.0,89.0
26.77,0.0,208.0,0.0,0.0,539.0,0.0,2099.0,89.0
26.73,0.0,140.0,0.0,0.0,636.0,0.0,2007.0,89.0
26.73,0.0,133.0,0.0,0.0,359.0,0.0,1958.0,89.0
26.73,0.0,123.0,0.0,0.0,229.0,0.0,2172.0,89.0
26.77,0.0,106.0,0.0,0.0,272.0,0.0,2080.0,89.0
26.73,0.0,120.0,0.0,0.0,256.0,0.0,2103.0,89.0
26.73,0.0,80.0,0.0,0.0,176.0,0.0,2123.0,89.0
26.79,0.0,75.0,0.0,0.0,128.0,0.0,2143.0,89.0
26.77,0.0,83.0,0.0,0.0,233.0,0.0,2144.0,89.0
26.79,0.0,80.0,0.0,0.0,233.0,0.0,2155.0,89.0
26.83,0.0,34.0,0.0,0.0,219.0,0.0,2151.0,89.0
26.83,0.0,16.0,0.0,0.0,37.0,0.0,2244.0,89.0
26.79,0.0,0.0,0.0,0.0,0.0,0.0,2437.0,89.0
26.73,0.0,0.0,0.0,0.0,0.0,0.0,2459.0,89.0
26.85,0.0,0.0,0.0,0.0,0.0,0.0,2463.0,89.0
26.83,0.0,0.0,0.0,0.0,0.0,0.0,2486.0,89.0
26.77,0.0,0.0,0.0,0.0,0.0,0.0,2503.0,89.0
26.79,0.0,53.0,0.0,0.0,0.0,0.0,2498.0,89.0
26.83,0.0,0.0,0.0,0.0,0.0,0.0,2486.0,89.0
26.83,0.0,0.0,0.0,0.0,0.0,0.0,2511.0,89.0
26.83,0.0,0.0,0.0,0.0,0.0,0.0,2506.0,89.0
26.79,0.0,0.0,0.0,0.0,0.0,0.0,2510.0,89.0
26.85,0.0,0.0,0.0,0.0,0.0,0.0,2522.0,89.0
26.83,0.0,0.0,0.0,0.0,0.0,0.0,2516.0,89.0
26.85,0.0,0.0,0.0,0.0,0.0,0.0,2517.0,89.0
26.83,0.0,0.0,0.0,0.0,0.0,0.0,2519.0,89.0
26.79,0.0,0.0,0.0,0.0,0.0,0.0,2536.0,89.0
26.79,0.0,0.0,0.0,0.0,0.0,0.0,2535.0,89.0
26.83,0.0,0.0,0.0,0.0,0.0,0.0,2534.0,89.0
26.79,0.0,0.0,0.0,0.0,0.0,0.0,2536.0,89.0
26.79,0.0,0.0,0.0,0.0,0.0,0.0,2541.0,89.0
26.77,0.0,0.0,0.0,0.0,0.0,0.0,2539.0,89.0
26.73,0.0,0.0,0.0,0.0,0.0,0.0,2532.0,89.0
26.61,0.0,0.0,0.0,0.0,0.0,0.0,2544.0,89.0
26.59,0.0,0.0,0.0,0.0,0.0,0.0,2533.0,89.0
26.61,0.0,0.0,0.0,0.0,0.0,0.0,2542.0,89.0
26.59,0.0,0.0,0.0,0.0,0.0,0.0,2543.0,89.0
26.61,0.0,0.0,0.0,0.0,0.0,0.0,2547.0,89.0
26.73,0.0,0.0,0.0,0.0,0.0,0.0,2554.0,89.0
26.71,0.0,0.0,0.0,0.0,0.0,0.0,2550.0,89.0
26.71,0.0,0.0,0.0,0.0,0.0,0.0,2558.0,89.0
26.67,0.0,0.0,0.0,0.0,0.0,0.0,2560.0,89.0
26.73,0.0,0.0,0.0,0.0,0.0,0.0,2560.0,89.0
26.71,0.0,0.0,0.0,0.0,0.0,0.0,2552.0,89.0
26.77,0.0,0.0,0.0,0.0,0.0,0.0,2561.0,89.0
26.67,0.0,0.0,0.0,0.0,0.0,0.0,2557.0,89.0
26.59,0.0,0.0,0.0,0.0,0.0,0.0,2563.0,89.0
26.67,0.0,0.0,0.0,0.0,0.0,0.0,2559.0,89.0
26.73,0.0,0.0,0.0,0.0,0.0,0.0,2557.0,89.0
26.77,0.0,0.0,0.0,0.0,0.0,0.0,2571.0,89.0
26.73,0.0,0.0,0.0,0.0,0.0,0.0,2561.0,89.0
26.77,0.0,0.0,0.0,0.0,0.0,0.0,2566.0,89.0
26.71,0.0,0.0,0.0,0.0,0.0,0.0,2562.0,89.0
26.71,0.0,0.0,0.0,0.0,0.0,0.0,2567.0,89.0
26.77,0.0,0.0,0.0,0.0,0.0,0.0,2567.0,89.0
26.73,0.0,0.0,0.0,0.0,0.0,0.0,2558.0,89.0
26.79,0.0,0.0,0.0,0.0,0.0,0.0,2566.0,89.0
26.77,0.0,0.0,0.0,0.0,0.0,0.0,2564.0,89.0
26.79,0.0,0.0,0.0,0.0,0.0,0.0,2562.0,89.0
26.71,0.0,0.0,0.0,0.0,0.0,0.0,2568.0,89.0
26.71,0.0,0.0,0.0,0.0,0.0,0.0,2564.0,89.0
26.73,0.0,0.0,0.0,0.0,0.0,0.0,2568.0,89.0
26.73,0.0,0.0,0.0,0.0,0.0,0.0,2566.0,89.0
26.71,0.0,0.0,0.0,0.0,0.0,0.0,2568.0,89.0
26.79,0.0,0.0,0.0,0.0,0.0,0.0,2567.0,89.0
26.79,0.0,0.0,0.0,0.0,0.0,0.0,2574.0,89.0
26.71,0.0,0.0,0.0,0.0,0.0,0.0,530.0,15.0
26.77,0.0,0.0,0.0,0.0,0.0,0.0,0.0,15.0
27.03,0.0,0.0,0.0,0.0,0.0,0.0,0.0,15.0
26.99,0.0,0.0,0.0,0.0,0.0,0.0,0.0,15.0
27.09,0.0,0.0,0.0,0.0,0.0,0.0,0.0,15.0
27.29,0.0,0.0,0.0,0.0,0.0,0.0,0.0,15.0
27.35,0.0,0.0,0.0,0.0,0.0,0.0,0.0,15.0
27.41,0.0,0.0,0.0,0.0,0.0,0.0,0.0,15.0
27.47,0.0,0.0,0.0,0.0,0.0,0.0,0.0,15.0
27.03,0.0,0.0,0.0,0.0,0.0,0.0,0.0,15.0
26.99,0.0,0.0,0.0,0.0,0.0,0.0,0.0,15.0
27.03,0.0,0.0,0.0,0.0,0.0,0.0,0.0,15.0
27.09,0.0,0.0,0.0,0.0,0.0,0.0,0.0,15.0
26.97,0.0,0.0,0.0,0.0,0.0,0.0,0.0,15.0
27.09,0.0,0.0,0.0,0.0,0.0,0.0,0.0,15.0
27.11,0.0,0.0,0.0,0.0,0.0,0.0,0.0,15.0
26.99,0.0,0.0,0.0,0.0,0.0,0.0,0.0,15.0
27.23,0.0,0.0,0.0,0.0,0.0,0.0,0.0,15.0
27.47,0.0,0.0,0.0,0.0,0.0,0.0,0.0,15.0
27.43,0.0,0.0,0.0,0.0,0.0,0.0,0.0,15.0
27.41,0.0,0.0,0.0,0.0,0.0,0.0,0.0,15.0
27.41,0.0,0.0,0.0,0.0,0.0,0.0,0.0,15.0
27.41,0.0,0.0,0.0,0.0,0.0,0.0,0.0,15.0
27.43,0.0,0.0,0.0,0.0,0.0,0.0,0.0,15.0
27.43,0.0,0.0,0.0,0.0,0.0,0.0,0.0,15.0
27.47,0.0,0.0,0.0,0.0,0.0,0.0,0.0,15.0
27.47,0.0,0.0,0.0,0.0,0.0,0.0,0.0,15.0
27.43,0.0,0.0,0.0,0.0,0.0,0.0,0.0,15.0
27.41,0.0,0.0,0.0,0.0,0.0,0.0,0.0,15.0
27.41,0.0,0.0,0.0,0.0,0.0,0.0,0.0,15.0
27.43,0.0,0.0,0.0,0.0,0.0,0.0,0.0,15.0
27.41,0.0,0.0,0.0,0.0,0.0,0.0,0.0,15.0
27.47,0.0,0.0,0.0,0.0,0.0,0.0,0.0,15.0
27.43,0.0,0.0,0.0,0.0,0.0,0.0,0.0,15.0
27.47,0.0,0.0,0.0,0.0,0.0,0.0,0.0,15.0
27.41,0.0,0.0,0.0,0.0,0.0,0.0,0.0,15.0
27.41,0.0,0.0,0.0,0.0,0.0,0.0,0.0,15.0
27.53,0.0,0.0,0.0,0.0,0.0,0.0,0.0,15.0
27.43,0.0,0.0,0.0,0.0,0.0,0.0,0.0,15.0
27.43,0.0,0.0,0.0,0.0,0.0,0.0,0.0,15.0
27.49,0.0,0.0,0.0,0.0,0.0,0.0,0.0,15.0
27.43,0.0,0.0,0.0,0.0,0.0,0.0,0.0,15.0
27.41,0.0,0.0,0.0,0.0,0.0,0.0,0.0,15.0
27.35,0.0,0.0,0.0,0.0,0.0,0.0,0.0,15.0
27.29,0.0,0.0,0.0,0.0,0.0,0.0,0.0,15.0
27.29,0.0,0.0,0.0,0.0,0.0,0.0,0.0,15.0
27.31,0.0,0.0,0.0,0.0,0.0,0.0,0.0,15.0
30.81,0.0,0.0,0.0,0.0,0.0,0.0,0.0,15.0
36.09,0.0,0.0,0.0,0.0,0.0,0.0,0.0,15.0
36.17,0.0,0.0,0.0,0.0,0.0,0.0,0.0,15.0
36.31,0.0,0.0,0.0,0.0,0.0,0.0,0.0,21.0
36.65,0.0,0.0,0.0,0.0,0.0,0.0,0.0,31.0
36.63,0.0,0.0,0.0,0.0,0.0,0.0,0.0,42.0
36.41,0.0,0.0,0.0,0.0,0.0,0.0,0.0,51.0
36.13,0.0,0.0,0.0,0.0,0.0,0.0,0.0,61.0
35.91,0.0,0.0,0.0,0.0,0.0,0.0,679.0,64.0
35.85,0.0,0.0,0.0,0.0,0.0,0.0,805.0,65.0
35.81,0.0,0.0,0.0,0.0,0.0,0.0,2349.0,75.0
35.71,0.0,0.0,0.0,0.0,0.0,0.0,2504.0,85.0
35.71,0.0,0.0,0.0,0.0,0.0,0.0,2547.0,94.0
35.67,0.0,0.0,0.0,0.0,0.0,0.0,2545.0,96.0
35.63,0.0,0.0,0.0,0.0,0.0,0.0,2491.0,96.0
35.63,0.0,0.0,0.0,0.0,0.0,0.0,2561.0,96.0
35.69,0.0,0.0,0.0,0.0,0.0,0.0,2644.0,96.0
35.67,0.0,0.0,0.0,0.0,0.0,0.0,2666.0,96.0
35.67,0.0,0.0,0.0,0.0,0.0,0.0,2626.0,96.0
35.69,0.0,0.0,0.0,0.0,0.0,0.0,2592.0,96.0
35.71,0.0,0.0,0.0,0.0,0.0,0.0,2491.0,96.0
35.69,0.0,0.0,0.0,0.0,0.0,0.0,2431.0,96.0
35.71,0.0,0.0,0.0,0.0,0.0,0.0,2441.0,96.0
35.69,0.0,0.0,0.0,0.0,0.0,0.0,2446.0,96.0
35.67,0.0,0.0,0.0,0.0,0.0,0.0,2327.0,96.0
35.67,0.0,0.0,0.0,0.0,0.0,0.0,2333.0,96.0
35.69,0.0,0.0,0.0,0.0,0.0,0.0,2371.0,96.0
35.69,0.0,0.0,0.0,0.0,0.0,0.0,2349.0,96.0
35.69,0.0,0.0,0.0,0.0,0.0,0.0,2400.0,96.0
35.61,0.0,0.0,0.0,0.0,0.0,0.0,2446.0,96.0
35.55,0.0,0.0,0.0,0.0,0.0,0.0,2412.0,96.0
35.61,0.0,0.0,0.0,0.0,0.0,0.0,2423.0,96.0
35.53,0.0,0.0,0.0,0.0,0.0,0.0,2393.0,96.0
35.61,0.0,0.0,0.0,0.0,0.0,0.0,2315.0,96.0
35.63,0.0,0.0,0.0,0.0,0.0,0.0,2272.0,96.0
35.61,0.0,240.0,0.0,0.0,0.0,0.0,2282.0,96.0
35.69,0.0,0.0,0.0,0.0,0.0,0.0,2330.0,96.0
35.55,0.0,0.0,0.0,0.0,0.0,0.0,2310.0,96.0
35.63,0.0,0.0,0.0,0.0,0.0,0.0,2262.0,96.0
35.63,0.0,0.0,0.0,0.0,0.0,0.0,2278.0,96.0
35.59,0.0,0.0,0.0,0.0,0.0,0.0,2228.0,96.0
35.59,0.0,0.0,0.0,0.0,0.0,0.0,2184.0,96.0
35.61,0.0,0.0,0.0,0.0,0.0,0.0,2148.0,96.0
35.55,0.0,0.0,0.0,0.0,0.0,0.0,2187.0,96.0
35.61,0.0,0.0,0.0,0.0,0.0,0.0,2189.0,96.0
35.69,0.0,0.0,0.0,0.0,0.0,0.0,2190.0,96.0
35.59,0.0,0.0,0.0,0.0,0.0,0.0,2184.0,96.0
35.63,0.0,0.0,0.0,0.0,0.0,0.0,2195.0,96.0
35.61,0.0,0.0,0.0,0.0,0.0,0.0,2206.0,96.0
35.55,0.0,0.0,0.0,0.0,0.0,0.0,2216.0,96.0
35.55,0.0,0.0,0.0,0.0,0.0,0.0,2209.0,96.0
35.59,0.0,0.0,0.0,0.0,0.0,0.0,2219.0,98.0
35.59,0.0,0.0,0.0,0.0,0.0,0.0,2214.0,98.0
35.67,0.0,0.0,0.0,0.0,0.0,0.0,2227.0,98.0
35.59,0.0,0.0,0.0,0.0,0.0,0.0,2288.0,98.0
35.53,0.0,0.0,0.0,0.0,0.0,0.0,2374.0,98.0
35.67,0.0,0.0,0.0,0.0,0.0,0.0,2474.0,98.0
35.61,0.0,0.0,0.0,0.0,0.0,0.0,2539.0,98.0
35.55,0.0,0.0,0.0,0.0,0.0,0.0,2602.0,98.0
35.59,0.0,0.0,0.0,0.0,0.0,0.0,2655.0,98.0
35.59,0.0,0.0,0.0,0.0,0.0,0.0,2699.0,98.0
35.67,0.0,0.0,0.0,0.0,0.0,0.0,2703.0,100.0
35.59,0.0,0.0,0.0,0.0,0.0,0.0,2698.0,100.0
35.59,0.0,0.0,0.0,0.0,0.0,0.0,2742.0,100.0
35.67,0.0,0.0,0.0,0.0,0.0,0.0,2654.0,100.0
35.67,0.0,0.0,0.0,0.0,0.0,0.0,2667.0,100.0
35.63,0.0,0.0,0.0,0.0,0.0,0.0,2674.0,100.0
35.67,0.0,0.0,0.0,0.0,0.0,0.0,2680.0,100.0
35.59,0.0,0.0,0.0,0.0,0.0,0.0,2684.0,100.0
35.67,0.0,0.0,0.0,0.0,0.0,0.0,2696.0,100.0
35.67,0.0,0.0,0.0,0.0,0.0,0.0,2697.0,100.0
35.71,0.0,0.0,0.0,0.0,0.0,0.0,2709.0,100.0
35.69,0.0,0.0,0.0,0.0,0.0,0.0,2706.0,100.0
35.69,0.0,0.0,0.0,0.0,0.0,0.0,2716.0,100.0
35.63,0.0,0.0,0.0,0.0,0.0,0.0,2711.0,100.0
35.69,0.0,0.0,0.0,0.0,0.0,0.0,2719.0,100.0
35.71,0.0,0.0,0.0,0.0,0.0,0.0,2724.0,100.0
35.61,0.0,0.0,0.0,0.0,0.0,0.0,2725.0,100.0
35.67,0.0,0.0,0.0,0.0,0.0,0.0,2732.0,100.0
35.61,0.0,0.0,0.0,0.0,0.0,0.0,2737.0,100.0
35.69,0.0,0.0,0.0,0.0,0.0,0.0,2739.0,100.0
35.71,0.0,0.0,0.0,0.0,0.0,0.0,2737.0,100.0
35.59,0.0,0.0,0.0,0.0,0.0,0.0,2737.0,100.0
35.61,0.0,0.0,0.0,0.0,0.0,0.0,2739.0,100.0
35.69,0.0,0.0,0.0,0.0,0.0,0.0,2742.0,100.0
35.67,0.0,0.0,0.0,0.0,0.0,0.0,2750.0,100.0
35.61,0.0,0.0,0.0,0.0,0.0,0.0,2747.0,100.0
35.69,0.0,0.0,0.0,0.0,0.0,0.0,2748.0,100.0
35.67,0.0,0.0,0.0,0.0,0.0,0.0,2755.0,100.0
35.59,0.0,0.0,0.0,0.0,0.0,0.0,2752.0,100.0
35.59,0.0,0.0,0.0,0.0,0.0,0.0,2759.0,100.0
35.59,0.0,0.0,0.0,0.0,0.0,0.0,2752.0,100.0
35.61,0.0,0.0,0.0,0.0,0.0,0.0,2753.0,100.0
35.55,0.0,0.0,0.0,0.0,0.0,0.0,2762.0,100.0
35.61,0.0,0.0,0.0,0.0,0.0,0.0,2761.0,100.0
35.63,0.0,0.0,0.0,0.0,0.0,0.0,2774.0,100.0
35.61,0.0,0.0,0.0,0.0,0.0,0.0,2776.0,100.0
35.67,0.0,0.0,0.0,0.0,0.0,0.0,2781.0,100.0
35.69,0.0,0.0,0.0,0.0,0.0,0.0,2766.0,100.0
35.77,0.0,0.0,0.0,0.0,0.0,0.0,54.0,15.0
35.51,0.0,0.0,0.0,0.0,0.0,0.0,31.0,15.0
27.49,0.0,0.0,0.0,0.0,0.0,0.0,0.0,15.0
27.55,0.0,0.0,0.0,0.0,0.0,0.0,0.0,15.0
27.43,0.0,0.0,0.0,0.0,0.0,0.0,0.0,15.0
27.59,0.0,0.0,0.0,0.0,0.0,0.0,0.0,15.0
28.07,0.0,0.0,0.0,0.0,0.0,0.0,0.0,15.0
28.25,0.0,0.0,0.0,0.0,0.0,0.0,0.0,15.0
28.25,0.0,0.0,0.0,0.0,0.0,0.0,0.0,15.0
27.53,0.0,0.0,0.0,0.0,0.0,0.0,0.0,15.0
27.37,0.0,0.0,0.0,0.0,0.0,0.0,0.0,15.0
27.29,0.0,0.0,0.0,0.0,0.0,0.0,0.0,15.0
27.37,0.0,0.0,0.0,0.0,0.0,0.0,0.0,15.0
27.49,0.0,0.0,0.0,0.0,0.0,0.0,0.0,15.0
27.53,0.0,0.0,0.0,0.0,0.0,0.0,0.0,15.0
27.47,0.0,0.0,0.0,0.0,0.0,0.0,0.0,15.0
27.47,0.0,0.0,0.0,0.0,0.0,0.0,0.0,15.0
27.49,0.0,0.0,0.0,0.0,0.0,0.0,0.0,15.0
27.47,0.0,0.0,0.0,0.0,0.0,0.0,0.0,15.0
27.43,0.0,0.0,0.0,0.0,0.0,0.0,0.0,15.0
27.47,0.0,0.0,0.0,0.0,0.0,0.0,0.0,15.0
27.47,0.0,0.0,0.0,0.0,0.0,0.0,0.0,15.0
27.49,0.0,0.0,0.0,0.0,0.0,0.0,0.0,15.0
27.49,0.0,0.0,0.0,0.0,0.0,0.0,0.0,15.0
27.53,0.0,0.0,0.0,0.0,0.0,0.0,0.0,15.0
27.53,0.0,0.0,0.0,0.0,0.0,0.0,0.0,15.0
27.59,0.0,0.0,0.0,0.0,0.0,0.0,0.0,15.0
27.55,0.0,0.0,0.0,0.0,0.0,0.0,0.0,15.0
27.59,0.0,0.0,0.0,0.0,0.0,0.0,0.0,15.0
27.61,0.0,0.0,0.0,0.0,0.0,0.0,0.0,15.0
27.55,0.0,0.0,0.0,0.0,0.0,0.0,0.0,15.0
27.55,0.0,0.0,0.0,0.0,0.0,0.0,0.0,15.0
27.55,0.0,0.0,0.0,0.0,0.0,0.0,0.0,15.0
27.55,0.0,0.0,0.0,0.0,0.0,0.0,0.0,15.0
27.59,0.0,0.0,0.0,0.0,0.0,0.0,0.0,15.0
27.59,0.0,0.0,0.0,0.0,0.0,0.0,0.0,15.0
27.55,0.0,192.0,0.0,0.0,0.0,0.0,0.0,15.0
27.55,0.0,0.0,0.0,0.0,0.0,0.0,0.0,15.0
27.55,0.0,0.0,0.0,0.0,0.0,0.0,0.0,15.0
27.53,0.0,0.0,0.0,0.0,0.0,0.0,0.0,15.0
27.55,0.0,0.0,0.0,0.0,0.0,0.0,0.0,15.0
27.55,0.0,0.0,0.0,0.0,0.0,56.0,0.0,15.0
27.53,0.0,0.0,0.0,0.0,0.0,0.0,0.0,15.0
27.53,0.0,0.0,0.0,0.0,0.0,0.0,0.0,15.0
27.55,0.0,0.0,0.0,0.0,0.0,0.0,0.0,15.0
27.49,0.0,0.0,0.0,0.0,0.0,0.0,0.0,15.0
27.15,0.0,0.0,0.0,0.0,0.0,0.0,0.0,15.0
27.11,0.0,0.0,0.0,0.0,0.0,0.0,0.0,15.0
27.17,0.0,0.0,0.0,0.0,0.0,0.0,0.0,15.0
27.15,0.0,0.0,0.0,0.0,0.0,0.0,0.0,17.0
27.17,0.0,0.0,0.0,0.0,0.0,0.0,0.0,18.0
27.21,0.0,0.0,0.0,0.0,0.0,0.0,0.0,18.0
27.23,0.0,0.0,0.0,0.0,0.0,0.0,0.0,26.0
27.21,0.0,0.0,0.0,0.0,0.0,0.0,0.0,35.0
27.29,0.0,0.0,0.0,0.0,0.0,0.0,0.0,45.0
27.31,0.0,0.0,0.0,0.0,0.0,0.0,0.0,57.0
27.29,0.0,0.0,0.0,0.0,0.0,0.0,0.0,66.0
27.31,0.0,0.0,0.0,0.0,0.0,0.0,0.0,76.0
27.23,0.0,0.0,0.0,0.0,0.0,0.0,1789.0,85.0
27.21,0.0,92.0,0.0,0.0,0.0,0.0,2137.0,95.0
27.15,0.0,0.0,0.0,0.0,0.0,0.0,2220.0,100.0
27.23,0.0,0.0,0.0,0.0,0.0,0.0,2241.0,100.0
27.23,0.0,0.0,0.0,0.0,0.0,0.0,2271.0,100.0
27.23,0.0,0.0,0.0,0.0,0.0,0.0,2096.0,100.0
27.21,0.0,0.0,0.0,0.0,0.0,0.0,2109.0,100.0
27.23,0.0,0.0,0.0,0.0,0.0,0.0,2116.0,100.0
27.23,0.0,0.0,0.0,0.0,0.0,0.0,1940.0,100.0
27.17,0.0,0.0,0.0,0.0,0.0,0.0,1965.0,100.0
27.21,0.0,0.0,0.0,0.0,0.0,0.0,2084.0,100.0
27.17,0.0,0.0,0.0,0.0,0.0,0.0,2061.0,100.0
27.15,0.0,0.0,0.0,0.0,0.0,0.0,2069.0,100.0
27.21,0.0,0.0,0.0,0.0,0.0,0.0,2091.0,100.0
27.25,0.0,0.0,0.0,0.0,0.0,0.0,2075.0,100.0
27.23,0.0,0.0,0.0,0.0,0.0,0.0,2080.0,100.0
27.25,0.0,0.0,0.0,0.0,0.0,0.0,2084.0,100.0
27.29,0.0,0.0,0.0,0.0,0.0,0.0,2090.0,100.0
27.29,240.0,0.0,0.0,0.0,0.0,0.0,2097.0,100.0
27.31,0.0,0.0,0.0,0.0,0.0,0.0,2088.0,100.0
27.15,0.0,0.0,0.0,0.0,0.0,0.0,2101.0,100.0
27.17,0.0,0.0,0.0,0.0,0.0,0.0,2103.0,100.0
27.21,0.0,0.0,0.0,0.0,0.0,0.0,2098.0,100.0
27.15,0.0,0.0,0.0,0.0,0.0,0.0,2100.0,100.0
27.11,0.0,0.0,0.0,0.0,0.0,0.0,2109.0,100.0
27.17,0.0,0.0,0.0,0.0,0.0,0.0,2112.0,100.0
27.17,0.0,0.0,0.0,0.0,0.0,0.0,2121.0,100.0
27.15,0.0,0.0,0.0,0.0,0.0,0.0,2126.0,100.0
27.15,0.0,0.0,0.0,0.0,0.0,0.0,2124.0,100.0
27.21,0.0,0.0,0.0,0.0,0.0,0.0,2134.0,100.0
27.23,0.0,0.0,0.0,0.0,0.0,0.0,2133.0,100.0
27.21,0.0,0.0,0.0,0.0,0.0,0.0,2141.0,100.0
27.23,0.0,0.0,0.0,0.0,0.0,0.0,2148.0,100.0
27.29,0.0,0.0,0.0,0.0,0.0,0.0,2151.0,100.0
27.29,0.0,0.0,0.0,0.0,0.0,0.0,2152.0,100.0
27.37,0.0,0.0,0.0,0.0,0.0,0.0,2145.0,100.0
27.41,0.0,0.0,0.0,0.0,0.0,0.0,2154.0,100.0
27.47,0.0,0.0,0.0,0.0,0.0,0.0,2155.0,100.0
27.41,0.0,0.0,0.0,0.0,0.0,0.0,2153.0,100.0
27.37,0.0,0.0,0.0,0.0,0.0,0.0,2156.0,100.0
27.37,0.0,0.0,0.0,0.0,0.0,0.0,2157.0,100.0
27.35,0.0,0.0,0.0,0.0,0.0,0.0,2156.0,100.0
27.41,0.0,0.0,0.0,0.0,0.0,0.0,2162.0,100.0
27.37,0.0,0.0,0.0,0.0,0.0,0.0,2157.0,100.0
27.35,0.0,0.0,0.0,0.0,0.0,0.0,2162.0,100.0
27.41,0.0,0.0,0.0,0.0,0.0,0.0,2165.0,100.0
27.37,0.0,0.0,0.0,0.0,0.0,0.0,2162.0,100.0
27.43,0.0,0.0,0.0,0.0,0.0,0.0,2163.0,100.0
27.47,0.0,0.0,0.0,0.0,0.0,0.0,2167.0,100.0
27.37,0.0,0.0,0.0,0.0,0.0,0.0,2166.0,100.0
27.43,0.0,0.0,0.0,0.0,0.0,0.0,2167.0,100.0
27.35,0.0,0.0,0.0,0.0,0.0,0.0,2176.0,100.0
27.41,0.0,0.0,0.0,0.0,0.0,0.0,2174.0,100.0
27.37,0.0,0.0,0.0,0.0,0.0,0.0,2169.0,100.0
27.35,0.0,0.0,0.0,0.0,0.0,0.0,2179.0,100.0
27.29,0.0,0.0,0.0,0.0,0.0,0.0,2172.0,100.0
27.31,0.0,0.0,0.0,0.0,0.0,0.0,2165.0,100.0
27.31,0.0,0.0,0.0,0.0,0.0,0.0,2179.0,100.0
27.31,0.0,0.0,0.0,0.0,0.0,0.0,2168.0,100.0
27.37,0.0,0.0,0.0,0.0,0.0,0.0,2175.0,100.0
27.37,0.0,0.0,0.0,0.0,0.0,0.0,2172.0,100.0
27.43,0.0,0.0,0.0,0.0,0.0,0.0,2172.0,100.0
27.47,0.0,0.0,0.0,0.0,0.0,0.0,2182.0,100.0
27.37,0.0,0.0,0.0,0.0,0.0,0.0,2180.0,100.0
27.43,0.0,0.0,0.0,0.0,0.0,0.0,2183.0,100.0
27.47,0.0,0.0,0.0,0.0,0.0,0.0,2176.0,100.0
27.35,0.0,0.0,0.0,0.0,0.0,0.0,2176.0,100.0
27.37,0.0,0.0,0.0,0.0,0.0,0.0,2176.0,100.0
27.47,0.0,0.0,0.0,0.0,0.0,0.0,2179.0,100.0
27.41,0.0,0.0,0.0,0.0,0.0,0.0,2188.0,100.0
27.41,0.0,0.0,0.0,0.0,0.0,0.0,2182.0,100.0
27.47,0.0,0.0,0.0,0.0,0.0,0.0,2188.0,100.0
27.41,0.0,0.0,0.0,0.0,0.0,0.0,2184.0,100.0
27.41,0.0,0.0,0.0,0.0,0.0,0.0,2183.0,100.0
27.35,0.0,0.0,0.0,0.0,0.0,0.0,2184.0,100.0
27.37,8.0,0.0,0.0,0.0,0.0,0.0,2188.0,100.0
27.29,0.0,0.0,0.0,0.0,0.0,0.0,2182.0,100.0
27.37,0.0,0.0,0.0,0.0,0.0,0.0,2184.0,100.0
27.37,0.0,0.0,0.0,0.0,0.0,0.0,2176.0,100.0
27.37,0.0,0.0,0.0,0.0,0.0,0.0,2178.0,100.0
27.29,0.0,0.0,0.0,0.0,0.0,0.0,2181.0,100.0
27.35,0.0,0.0,0.0,0.0,0.0,0.0,2186.0,100.0
27.35,0.0,0.0,0.0,0.0,0.0,0.0,2180.0,100.0
27.41,0.0,0.0,0.0,0.0,0.0,0.0,2187.0,100.0
27.35,0.0,0.0,0.0,0.0,0.0,0.0,2189.0,100.0
27.37,0.0,0.0,0.0,0.0,0.0,0.0,2189.0,100.0
27.41,0.0,0.0,0.0,0.0,0.0,0.0,2192.0,100.0
27.37,0.0,0.0,0.0,0.0,0.0,0.0,2191.0,100.0
27.29,0.0,0.0,0.0,0.0,0.0,0.0,2186.0,15.0
27.29,0.0,0.0,0.0,0.0,0.0,0.0,13.0,15.0
27.35,0.0,0.0,0.0,0.0,0.0,0.0,0.0,15.0
27.21,0.0,0.0,0.0,0.0,0.0,0.0,0.0,15.0
27.23,0.0,0.0,0.0,0.0,0.0,0.0,0.0,15.0
27.21,0.0,0.0,0.0,0.0,0.0,0.0,0.0,15.0
27.17,0.0,0.0,0.0,0.0,0.0,0.0,0.0,15.0
27.25,0.0,0.0,0.0,0.0,0.0,0.0,0.0,15.0
27.29,0.0,0.0,0.0,0.0,0.0,0.0,0.0,15.0
27.29,0.0,0.0,0.0,0.0,0.0,0.0,0.0,15.0
27.25,0.0,0.0,0.0,0.0,0.0,0.0,0.0,15.0
27.35,0.0,0.0,0.0,0.0,0.0,0.0,0.0,15.0
27.29,0.0,0.0,0.0,0.0,0.0,0.0,0.0,15.0
27.31,0.0,0.0,0.0,0.0,0.0,0.0,0.0,15.0
27.29,0.0,0.0,0.0,0.0,0.0,0.0,0.0,15.0
27.37,0.0,0.0,0.0,0.0,0.0,0.0,0.0,15.0
27.15,0.0,0.0,0.0,0.0,0.0,0.0,0.0,15.0
27.25,0.0,0.0,0.0,0.0,0.0,0.0,0.0,15.0
