tempMLX,FSR_A1,FSR_A2,FSR_A3,FSR_B1,FSR_B2,FSR_B3,FSR_C,porcAper
0.0,0.0,0.0,0.0,0.0,0.0,0.0,0.0,15.0
0.0,0.0,0.0,0.0,0.0,0.0,0.0,0.0,15.0
26.93,0.0,0.0,0.0,0.0,0.0,0.0,0.0,15.0
26.99,0.0,0.0,0.0,0.0,0.0,0.0,0.0,15.0
26.99,0.0,0.0,0.0,0.0,0.0,0.0,0.0,15.0
26.85,0.0,0.0,0.0,0.0,0.0,0.0,0.0,15.0
26.83,0.0,0.0,0.0,0.0,0.0,0.0,0.0,15.0
26.87,0.0,0.0,0.0,0.0,0.0,0.0,0.0,15.0
26.85,0.0,0.0,0.0,0.0,0.0,0.0,0.0,15.0
26.83,0.0,0.0,0.0,0.0,0.0,0.0,0.0,15.0
26.87,0.0,0.0,0.0,0.0,0.0,0.0,0.0,15.0
26.87,0.0,0.0,0.0,0.0,0.0,0.0,0.0,15.0
26.83,0.0,0.0,0.0,0.0,0.0,0.0,0.0,15.0
26.83,0.0,0.0,0.0,0.0,0.0,0.0,0.0,15.0
26.87,0.0,0.0,0.0,0.0,0.0,0.0,0.0,15.0
26.83,0.0,0.0,0.0,0.0,0.0,0.0,0.0,15.0
26.83,0.0,0.0,0.0,0.0,0.0,0.0,0.0,15.0
26.79,0.0,0.0,0.0,0.0,0.0,0.0,0.0,15.0
26.85,0.0,0.0,0.0,0.0,0.0,0.0,0.0,15.0
26.85,0.0,0.0,0.0,0.0,0.0,0.0,0.0,15.0
26.83,0.0,0.0,0.0,0.0,0.0,0.0,0.0,15.0
26.87,0.0,0.0,0.0,0.0,0.0,0.0,0.0,15.0
26.85,0.0,0.0,0.0,0.0,0.0,0.0,0.0,15.0
26.83,0.0,0.0,0.0,0.0,0.0,0.0,0.0,15.0
26.87,0.0,0.0,0.0,0.0,0.0,0.0,0.0,15.0
26.87,0.0,0.0,0.0,0.0,0.0,0.0,0.0,15.0
26.91,0.0,0.0,0.0,0.0,0.0,0.0,0.0,15.0
26.87,0.0,0.0,0.0,0.0,0.0,0.0,0.0,15.0
26.79,0.0,0.0,0.0,0.0,0.0,0.0,0.0,15.0
26.87,0.0,0.0,0.0,0.0,0.0,0.0,0.0,15.0
26.83,0.0,0.0,0.0,0.0,0.0,0.0,0.0,15.0
26.99,0.0,0.0,0.0,0.0,0.0,0.0,0.0,15.0
26.93,0.0,0.0,0.0,0.0,0.0,0.0,0.0,15.0
26.97,0.0,0.0,0.0,0.0,0.0,0.0,0.0,15.0
26.99,0.0,0.0,0.0,0.0,0.0,0.0,0.0,15.0
27.03,0.0,0.0,0.0,0.0,0.0,0.0,0.0,15.0
27.03,0.0,0.0,0.0,0.0,0.0,0.0,0.0,15.0
26.99,0.0,0.0,0.0,0.0,0.0,0.0,0.0,15.0
26.97,0.0,0.0,0.0,0.0,0.0,0.0,0.0,15.0
26.97,0.0,0.0,0.0,0.0,0.0,0.0,0.0,15.0
26.93,0.0,0.0,0.0,0.0,0.0,0.0,0.0,15.0
26.91,0.0,0.0,0.0,0.0,0.0,0.0,0.0,15.0
27.03,0.0,0.0,0.0,0.0,0.0,0.0,0.0,15.0
26.99,0.0,0.0,0.0,0.0,0.0,0.0,0.0,15.0
26.97,0.0,0.0,0.0,0.0,0.0,0.0,0.0,15.0
26.85,0.0,0.0,0.0,0.0,0.0,0.0,0.0,15.0
26.85,0.0,0.0,0.0,0.0,0.0,0.0,0.0,15.0
26.85,0.0,0.0,0.0,0.0,0.0,0.0,0.0,15.0
26.97,0.0,0.0,0.0,0.0,0.0,0.0,0.0,15.0
26.97,0.0,0.0,0.0,0.0,0.0,0.0,0.0,15.0
26.97,0.0,0.0,0.0,0.0,0.0,0.0,0.0,15.0
26.97,0.0,0.0,0.0,0.0,0.0,0.0,0.0,15.0
26.97,0.0,0.0,0.0,0.0,0.0,0.0,0.0,15.0
26.83,0.0,0.0,0.0,0.0,0.0,0.0,0.0,15.0
26.87,0.0,0.0,0.0,0.0,0.0,0.0,0.0,15.0
26.83,0.0,0.0,0.0,0.0,0.0,0.0,0.0,15.0
26.91,0.0,0.0,0.0,0.0,0.0,0.0,0.0,15.0
26.83,0.0,0.0,0.0,0.0,0.0,0.0,0.0,15.0
26.85,0.0,0.0,0.0,0.0,0.0,0.0,0.0,15.0
26.85,0.0,0.0,0.0,0.0,0.0,0.0,0.0,15.0
26.87,0.0,0.0,0.0,0.0,0.0,0.0,0.0,15.0
26.85,0.0,0.0,0.0,0.0,0.0,0.0,0.0,15.0
26.85,0.0,0.0,0.0,0.0,0.0,0.0,0.0,15.0
26.97,0.0,0.0,0.0,0.0,0.0,0.0,0.0,15.0
26.83,0.0,0.0,0.0,0.0,0.0,0.0,0.0,15.0
26.83,0.0,0.0,0.0,0.0,0.0,0.0,0.0,15.0
26.79,0.0,0.0,0.0,0.0,0.0,0.0,0.0,15.0
26.79,0.0,0.0,0.0,0.0,0.0,0.0,0.0,15.0
26.83,0.0,0.0,0.0,0.0,0.0,0.0,0.0,15.0
26.83,0.0,0.0,0.0,0.0,0.0,0.0,0.0,15.0
26.83,0.0,0.0,0.0,0.0,0.0,0.0,0.0,15.0
26.77,0.0,0.0,0.0,0.0,0.0,0.0,0.0,15.0
26.77,0.0,0.0,0.0,0.0,0.0,0.0,0.0,15.0
26.85,0.0,0.0,0.0,0.0,0.0,0.0,0.0,15.0
26.83,0.0,0.0,0.0,0.0,0.0,0.0,0.0,15.0
26.77,0.0,0.0,0.0,0.0,0.0,0.0,0.0,15.0
26.73,0.0,0.0,0.0,0.0,0.0,0.0,0.0,15.0
26.85,0.0,0.0,0.0,0.0,0.0,0.0,0.0,15.0
26.71,0.0,0.0,0.0,0.0,0.0,0.0,0.0,15.0
26.77,0.0,0.0,0.0,0.0,0.0,0.0,0.0,15.0
26.79,0.0,0.0,0.0,0.0,0.0,0.0,0.0,15.0
26.77,0.0,0.0,0.0,0.0,0.0,0.0,0.0,15.0
26.79,0.0,0.0,0.0,0.0,0.0,0.0,1.0,15.0
26.79,0.0,0.0,0.0,0.0,0.0,0.0,0.0,15.0
26.79,0.0,0.0,0.0,0.0,0.0,0.0,0.0,15.0
26.79,0.0,0.0,0.0,0.0,0.0,0.0,0.0,15.0
26.71,0.0,0.0,0.0,0.0,0.0,0.0,0.0,15.0
26.79,0.0,0.0,0.0,0.0,0.0,0.0,0.0,15.0
26.77,0.0,0.0,0.0,0.0,0.0,0.0,0.0,15.0
26.87,0.0,0.0,0.0,0.0,0.0,0.0,0.0,15.0
26.93,0.0,0.0,0.0,0.0,0.0,0.0,0.0,15.0
26.87,0.0,0.0,0.0,0.0,0.0,0.0,0.0,15.0
26.91,0.0,0.0,0.0,0.0,0.0,0.0,0.0,15.0
26.83,0.0,0.0,80.0,0.0,0.0,0.0,0.0,15.0
26.87,0.0,0.0,0.0,0.0,0.0,0.0,0.0,15.0
26.83,0.0,0.0,0.0,0.0,0.0,0.0,0.0,15.0
26.83,0.0,0.0,0.0,0.0,0.0,0.0,0.0,15.0
26.83,0.0,0.0,0.0,0.0,0.0,0.0,0.0,15.0
26.83,0.0,0.0,0.0,0.0,0.0,0.0,0.0,15.0
26.83,0.0,0.0,0.0,0.0,0.0,0.0,0.0,15.0
26.83,0.0,0.0,0.0,0.0,0.0,0.0,0.0,15.0
26.79,0.0,0.0,0.0,0.0,0.0,0.0,0.0,15.0
26.87,0.0,0.0,0.0,0.0,0.0,0.0,0.0,15.0
26.79,0.0,0.0,0.0,0.0,0.0,0.0,0.0,15.0
26.77,0.0,0.0,0.0,0.0,0.0,0.0,0.0,15.0
26.77,0.0,0.0,0.0,0.0,0.0,0.0,0.0,15.0
26.67,0.0,0.0,0.0,0.0,0.0,0.0,0.0,15.0
26.73,0.0,0.0,0.0,0.0,0.0,0.0,0.0,15.0
26.83,0.0,0.0,0.0,0.0,0.0,0.0,0.0,15.0
26.83,0.0,0.0,0.0,0.0,0.0,0.0,0.0,15.0
26.83,0.0,0.0,0.0,0.0,0.0,0.0,0.0,15.0
26.87,0.0,0.0,0.0,0.0,0.0,0.0,0.0,15.0
26.83,0.0,0.0,0.0,0.0,0.0,0.0,0.0,15.0
26.71,0.0,0.0,0.0,0.0,0.0,0.0,0.0,15.0
26.71,0.0,0.0,0.0,0.0,0.0,0.0,0.0,15.0
26.79,0.0,0.0,0.0,0.0,0.0,0.0,0.0,15.0
26.73,0.0,0.0,0.0,176.0,0.0,0.0,0.0,15.0
26.83,0.0,0.0,0.0,0.0,0.0,0.0,0.0,15.0
26.85,0.0,0.0,0.0,0.0,0.0,0.0,0.0,15.0
26.73,0.0,0.0,0.0,0.0,0.0,0.0,0.0,15.0
26.79,0.0,0.0,0.0,0.0,0.0,0.0,0.0,15.0
26.87,0.0,0.0,0.0,0.0,0.0,0.0,0.0,15.0
26.83,0.0,0.0,0.0,0.0,0.0,0.0,0.0,15.0
26.83,0.0,0.0,0.0,0.0,0.0,0.0,0.0,15.0
26.83,0.0,0.0,0.0,0.0,0.0,0.0,0.0,15.0
26.83,0.0,0.0,0.0,0.0,0.0,0.0,0.0,15.0
26.85,0.0,0.0,0.0,0.0,0.0,0.0,0.0,15.0
26.83,0.0,0.0,0.0,0.0,0.0,0.0,0.0,15.0
26.85,0.0,0.0,0.0,0.0,0.0,0.0,0.0,15.0
26.87,0.0,0.0,0.0,0.0,0.0,0.0,0.0,15.0
26.85,0.0,0.0,0.0,0.0,0.0,0.0,0.0,15.0
26.87,0.0,0.0,0.0,0.0,0.0,0.0,0.0,15.0
26.83,0.0,0.0,0.0,0.0,0.0,0.0,0.0,15.0
26.91,0.0,0.0,0.0,0.0,0.0,0.0,0.0,15.0
26.87,0.0,0.0,0.0,0.0,0.0,0.0,0.0,16.0
26.85,0.0,0.0,0.0,0.0,0.0,0.0,0.0,16.0
26.87,0.0,0.0,0.0,0.0,0.0,0.0,0.0,16.0
26.91,0.0,0.0,0.0,0.0,0.0,0.0,0.0,16.0
26.93,0.0,0.0,0.0,0.0,0.0,0.0,0.0,16.0
26.83,0.0,0.0,0.0,0.0,0.0,0.0,0.0,16.0
26.77,0.0,0.0,0.0,0.0,0.0,0.0,0.0,16.0
26.71,0.0,0.0,0.0,0.0,0.0,0.0,0.0,16.0
26.79,0.0,0.0,0.0,0.0,0.0,0.0,0.0,16.0
26.77,0.0,0.0,0.0,0.0,0.0,0.0,0.0,16.0
26.71,0.0,0.0,0.0,0.0,0.0,0.0,0.0,16.0
26.73,0.0,0.0,0.0,0.0,0.0,0.0,0.0,16.0
26.77,0.0,0.0,0.0,0.0,0.0,0.0,0.0,16.0
26.83,0.0,0.0,0.0,0.0,0.0,0.0,0.0,16.0
26.83,0.0,0.0,0.0,0.0,0.0,0.0,0.0,16.0
26.77,0.0,0.0,0.0,0.0,0.0,0.0,0.0,16.0
26.83,0.0,0.0,0.0,0.0,0.0,0.0,0.0,19.0
26.83,0.0,0.0,0.0,0.0,0.0,0.0,0.0,27.0
26.83,0.0,0.0,0.0,0.0,0.0,0.0,0.0,37.0
26.83,0.0,0.0,0.0,0.0,0.0,0.0,0.0,47.0
26.87,0.0,0.0,0.0,0.0,0.0,0.0,0.0,54.0
26.83,0.0,0.0,0.0,0.0,0.0,0.0,0.0,54.0
26.93,0.0,0.0,0.0,0.0,0.0,0.0,0.0,54.0
26.83,0.0,0.0,0.0,0.0,0.0,0.0,0.0,54.0
26.79,0.0,0.0,0.0,0.0,0.0,0.0,0.0,62.0
26.87,0.0,0.0,0.0,0.0,0.0,0.0,0.0,71.0
26.83,0.0,0.0,0.0,0.0,0.0,0.0,0.0,81.0
26.87,0.0,0.0,0.0,0.0,0.0,0.0,38.0,90.0
26.87,0.0,0.0,0.0,0.0,0.0,0.0,54.0,91.0
26.87,0.0,0.0,0.0,0.0,0.0,0.0,70.0,91.0
26.85,0.0,0.0,0.0,0.0,0.0,0.0,71.0,91.0
26.83,0.0,0.0,0.0,0.0,0.0,0.0,85.0,91.0
26.83,0.0,0.0,0.0,0.0,0.0,0.0,84.0,94.0
26.91,0.0,0.0,0.0,0.0,0.0,0.0,85.0,94.0
26.85,0.0,0.0,0.0,0.0,0.0,0.0,90.0,94.0
26.79,0.0,0.0,0.0,0.0,0.0,0.0,86.0,94.0
26.83,0.0,0.0,0.0,0.0,0.0,0.0,93.0,94.0
26.77,0.0,0.0,0.0,0.0,0.0,0.0,91.0,94.0
26.83,0.0,0.0,0.0,0.0,0.0,0.0,90.0,94.0
26.83,0.0,0.0,0.0,0.0,0.0,0.0,94.0,94.0
26.79,0.0,0.0,0.0,0.0,0.0,0.0,88.0,94.0
26.85,0.0,0.0,0.0,0.0,0.0,0.0,89.0,94.0
26.77,0.0,0.0,0.0,0.0,0.0,0.0,90.0,94.0
26.83,0.0,0.0,0.0,0.0,0.0,0.0,93.0,94.0
26.79,0.0,0.0,0.0,0.0,0.0,0.0,92.0,94.0
26.77,0.0,0.0,0.0,0.0,0.0,0.0,96.0,94.0
26.77,0.0,0.0,0.0,0.0,0.0,0.0,94.0,94.0
26.73,0.0,0.0,0.0,0.0,0.0,0.0,94.0,94.0
26.71,0.0,0.0,0.0,0.0,0.0,0.0,92.0,94.0
26.73,0.0,0.0,0.0,0.0,0.0,0.0,94.0,94.0
26.71,0.0,0.0,0.0,0.0,0.0,0.0,85.0,94.0
26.71,0.0,0.0,0.0,0.0,0.0,0.0,92.0,94.0
26.77,0.0,0.0,0.0,0.0,0.0,0.0,89.0,94.0
26.67,0.0,0.0,0.0,0.0,0.0,0.0,94.0,94.0
26.65,0.0,0.0,0.0,0.0,0.0,0.0,94.0,94.0
26.61,0.0,0.0,0.0,0.0,0.0,0.0,101.0,94.0
26.61,0.0,0.0,0.0,0.0,0.0,0.0,100.0,94.0
26.77,0.0,0.0,0.0,0.0,0.0,0.0,102.0,94.0
26.77,0.0,0.0,0.0,0.0,0.0,0.0,101.0,94.0
26.79,0.0,0.0,0.0,0.0,0.0,0.0,106.0,94.0
26.79,0.0,0.0,0.0,0.0,0.0,0.0,103.0,94.0
26.77,0.0,0.0,0.0,0.0,0.0,0.0,110.0,94.0
26.77,0.0,0.0,0.0,0.0,0.0,0.0,116.0,94.0
26.79,0.0,0.0,0.0,0.0,0.0,0.0,104.0,94.0
26.73,0.0,0.0,0.0,0.0,0.0,0.0,101.0,94.0
26.65,0.0,0.0,0.0,0.0,0.0,0.0,109.0,94.0
26.67,0.0,0.0,0.0,0.0,0.0,0.0,100.0,94.0
26.65,0.0,0.0,0.0,0.0,0.0,0.0,105.0,94.0
26.71,0.0,0.0,0.0,0.0,0.0,0.0,103.0,94.0
26.79,0.0,0.0,0.0,0.0,0.0,0.0,105.0,94.0
26.71,0.0,0.0,0.0,0.0,0.0,0.0,109.0,94.0
26.71,0.0,0.0,0.0,0.0,0.0,0.0,106.0,94.0
26.71,0.0,0.0,0.0,0.0,0.0,0.0,102.0,94.0
26.71,0.0,0.0,0.0,0.0,0.0,0.0,111.0,94.0
26.77,0.0,0.0,0.0,0.0,0.0,0.0,120.0,94.0
26.77,0.0,0.0,0.0,0.0,0.0,0.0,116.0,94.0
26.73,0.0,0.0,0.0,0.0,0.0,0.0,214.0,94.0
26.71,0.0,0.0,0.0,0.0,0.0,0.0,251.0,94.0
26.83,0.0,0.0,0.0,0.0,0.0,0.0,271.0,94.0
26.77,0.0,0.0,0.0,0.0,0.0,0.0,277.0,94.0
26.77,0.0,0.0,0.0,0.0,0.0,0.0,282.0,94.0
26.73,0.0,0.0,0.0,0.0,0.0,0.0,281.0,94.0
26.77,0.0,0.0,0.0,0.0,0.0,0.0,282.0,94.0
26.73,0.0,0.0,0.0,0.0,0.0,0.0,297.0,94.0
26.85,0.0,0.0,0.0,0.0,0.0,0.0,308.0,94.0
26.93,0.0,0.0,0.0,0.0,0.0,0.0,305.0,94.0
26.93,0.0,0.0,0.0,0.0,0.0,0.0,306.0,94.0
26.99,0.0,0.0,0.0,0.0,0.0,0.0,309.0,94.0
26.97,0.0,0.0,0.0,0.0,0.0,0.0,318.0,94.0
26.87,0.0,0.0,0.0,0.0,0.0,0.0,316.0,94.0
26.85,0.0,0.0,0.0,0.0,0.0,0.0,318.0,94.0
26.83,0.0,0.0,0.0,0.0,0.0,0.0,311.0,94.0
26.77,0.0,0.0,0.0,0.0,0.0,0.0,315.0,94.0
26.83,0.0,0.0,0.0,0.0,0.0,0.0,320.0,94.0
26.83,0.0,0.0,0.0,0.0,0.0,0.0,324.0,94.0
26.73,0.0,0.0,0.0,0.0,0.0,0.0,323.0,94.0
26.77,0.0,0.0,0.0,0.0,0.0,0.0,322.0,94.0
26.85,0.0,0.0,0.0,0.0,0.0,0.0,317.0,94.0
26.71,0.0,0.0,0.0,0.0,0.0,0.0,327.0,94.0
26.85,0.0,0.0,0.0,0.0,0.0,0.0,326.0,94.0
26.73,0.0,0.0,0.0,0.0,0.0,0.0,319.0,94.0
26.79,0.0,0.0,0.0,0.0,0.0,0.0,319.0,94.0
26.73,0.0,0.0,0.0,0.0,0.0,0.0,322.0,94.0
26.83,0.0,0.0,0.0,0.0,0.0,0.0,325.0,94.0
26.83,0.0,0.0,0.0,0.0,0.0,0.0,322.0,15.0
26.85,0.0,0.0,0.0,0.0,0.0,0.0,0.0,15.0
27.09,0.0,0.0,0.0,0.0,0.0,0.0,0.0,15.0
27.11,0.0,0.0,0.0,0.0,0.0,0.0,0.0,15.0
26.97,0.0,0.0,0.0,0.0,0.0,0.0,0.0,15.0
26.99,0.0,0.0,0.0,0.0,0.0,0.0,0.0,15.0
27.43,0.0,0.0,0.0,0.0,0.0,0.0,0.0,15.0
27.21,0.0,0.0,0.0,0.0,0.0,0.0,0.0,15.0
27.29,0.0,0.0,0.0,0.0,0.0,0.0,0.0,15.0
27.49,0.0,0.0,0.0,0.0,0.0,0.0,0.0,15.0
27.61,0.0,0.0,0.0,0.0,0.0,0.0,0.0,15.0
26.91,0.0,0.0,0.0,0.0,0.0,0.0,0.0,15.0
26.97,0.0,0.0,0.0,0.0,0.0,0.0,0.0,15.0
27.11,0.0,0.0,0.0,0.0,0.0,0.0,0.0,15.0
27.23,0.0,0.0,0.0,0.0,0.0,0.0,0.0,15.0
27.37,0.0,0.0,0.0,0.0,0.0,0.0,0.0,15.0
27.31,0.0,0.0,0.0,0.0,0.0,0.0,0.0,15.0
27.11,0.0,0.0,0.0,0.0,0.0,0.0,0.0,15.0
26.99,0.0,0.0,0.0,0.0,0.0,0.0,0.0,15.0
26.99,0.0,0.0,0.0,0.0,0.0,0.0,0.0,15.0
27.11,0.0,0.0,0.0,0.0,0.0,0.0,0.0,15.0
27.17,0.0,0.0,0.0,0.0,0.0,0.0,0.0,15.0
27.21,0.0,0.0,0.0,0.0,0.0,0.0,0.0,15.0
27.21,0.0,0.0,0.0,0.0,0.0,0.0,0.0,15.0
27.25,0.0,0.0,0.0,0.0,0.0,0.0,0.0,15.0
27.37,0.0,0.0,0.0,0.0,0.0,0.0,0.0,15.0
27.37,0.0,0.0,0.0,0.0,0.0,0.0,0.0,15.0
27.35,0.0,0.0,0.0,0.0,0.0,0.0,0.0,15.0
27.35,0.0,0.0,0.0,0.0,0.0,0.0,0.0,15.0
27.35,0.0,0.0,0.0,0.0,0.0,0.0,0.0,15.0
27.35,0.0,0.0,0.0,0.0,0.0,0.0,0.0,15.0
27.31,0.0,0.0,0.0,0.0,0.0,0.0,0.0,15.0
27.35,0.0,0.0,0.0,0.0,0.0,0.0,0.0,15.0
27.23,0.0,0.0,0.0,0.0,0.0,0.0,0.0,15.0
27.41,0.0,0.0,0.0,0.0,0.0,0.0,0.0,15.0
27.31,0.0,0.0,0.0,0.0,0.0,0.0,0.0,15.0
27.35,0.0,0.0,0.0,0.0,0.0,0.0,0.0,15.0
27.11,0.0,0.0,0.0,0.0,0.0,0.0,0.0,15.0
27.11,0.0,0.0,0.0,0.0,0.0,0.0,0.0,15.0
27.11,0.0,0.0,0.0,0.0,0.0,0.0,0.0,15.0
27.17,0.0,0.0,0.0,0.0,0.0,0.0,0.0,15.0
27.17,0.0,0.0,0.0,0.0,0.0,0.0,0.0,15.0
26.97,0.0,0.0,0.0,0.0,0.0,0.0,0.0,15.0
26.93,0.0,0.0,0.0,0.0,0.0,0.0,0.0,15.0
26.97,0.0,0.0,0.0,0.0,0.0,0.0,0.0,15.0
27.03,0.0,0.0,0.0,0.0,0.0,0.0,0.0,15.0
26.73,0.0,0.0,0.0,0.0,0.0,0.0,0.0,15.0
26.65,0.0,0.0,0.0,0.0,0.0,0.0,0.0,15.0
26.65,0.0,0.0,0.0,0.0,0.0,0.0,0.0,15.0
26.61,0.0,0.0,0.0,0.0,0.0,0.0,0.0,15.0
26.47,0.0,0.0,0.0,0.0,0.0,0.0,0.0,15.0
26.41,0.0,0.0,0.0,0.0,0.0,0.0,0.0,15.0
26.59,0.0,0.0,0.0,0.0,0.0,0.0,0.0,15.0
26.53,0.0,0.0,0.0,0.0,0.0,0.0,0.0,15.0
26.49,0.0,0.0,0.0,0.0,0.0,0.0,0.0,15.0
26.47,0.0,0.0,0.0,0.0,0.0,0.0,0.0,15.0
26.43,0.0,0.0,0.0,0.0,0.0,0.0,0.0,15.0
26.49,0.0,0.0,0.0,0.0,0.0,0.0,0.0,15.0
26.59,0.0,0.0,0.0,0.0,0.0,0.0,0.0,15.0
26.49,0.0,0.0,0.0,0.0,0.0,0.0,0.0,15.0
26.43,0.0,0.0,0.0,0.0,0.0,0.0,0.0,15.0
26.43,0.0,0.0,0.0,0.0,0.0,0.0,0.0,15.0
26.35,0.0,0.0,0.0,0.0,0.0,0.0,0.0,15.0
26.43,0.0,0.0,0.0,0.0,0.0,0.0,0.0,15.0
26.43,0.0,0.0,0.0,0.0,0.0,0.0,0.0,15.0
26.43,0.0,0.0,0.0,0.0,0.0,0.0,0.0,15.0
26.43,0.0,0.0,0.0,0.0,0.0,0.0,0.0,15.0
26.43,0.0,0.0,0.0,0.0,0.0,0.0,0.0,15.0
26.59,0.0,0.0,0.0,0.0,0.0,0.0,0.0,23.0
26.41,0.0,0.0,0.0,0.0,0.0,0.0,0.0,32.0
26.43,0.0,0.0,0.0,0.0,0.0,0.0,0.0,42.0
26.53,0.0,0.0,0.0,0.0,0.0,0.0,0.0,52.0
26.49,0.0,0.0,0.0,0.0,0.0,0.0,0.0,61.0
26.49,0.0,0.0,0.0,0.0,0.0,0.0,0.0,72.0
26.49,0.0,0.0,0.0,0.0,0.0,0.0,0.0,82.0
26.53,0.0,0.0,0.0,0.0,0.0,0.0,0.0,89.0
26.49,0.0,0.0,0.0,0.0,0.0,0.0,0.0,89.0
26.49,0.0,0.0,0.0,0.0,0.0,0.0,0.0,92.0
26.47,0.0,441.0,0.0,0.0,0.0,0.0,179.0,100.0
26.55,0.0,465.0,0.0,0.0,0.0,0.0,926.0,100.0
26.47,0.0,474.0,0.0,0.0,0.0,0.0,1049.0,100.0
26.55,0.0,500.0,0.0,0.0,0.0,0.0,1099.0,100.0
26.49,0.0,528.0,0.0,0.0,0.0,0.0,1135.0,100.0
26.49,0.0,490.0,0.0,0.0,0.0,0.0,1127.0,100.0
26.55,0.0,453.0,0.0,0.0,0.0,0.0,1124.0,100.0
26.53,0.0,444.0,0.0,0.0,0.0,0.0,1136.0,100.0
26.47,0.0,456.0,0.0,0.0,0.0,0.0,1142.0,100.0
26.59,0.0,401.0,0.0,0.0,0.0,0.0,1115.0,100.0
26.59,0.0,402.0,0.0,0.0,0.0,0.0,1118.0,100.0
26.65,0.0,404.0,0.0,0.0,0.0,0.0,1121.0,100.0
26.73,0.0,395.0,0.0,0.0,0.0,0.0,1133.0,100.0
26.71,0.0,387.0,0.0,0.0,0.0,0.0,1123.0,100.0
26.59,0.0,362.0,0.0,0.0,0.0,0.0,1109.0,100.0
26.49,0.0,0.0,0.0,0.0,0.0,0.0,919.0,100.0
26.53,0.0,189.0,0.0,0.0,0.0,0.0,950.0,100.0
26.49,0.0,430.0,0.0,0.0,0.0,0.0,1125.0,100.0
26.61,0.0,511.0,0.0,0.0,0.0,0.0,1191.0,100.0
26.47,0.0,459.0,0.0,0.0,0.0,0.0,1195.0,100.0
26.47,0.0,499.0,0.0,0.0,38.0,0.0,1204.0,100.0
26.49,0.0,511.0,0.0,0.0,0.0,0.0,1204.0,100.0
26.43,0.0,545.0,0.0,0.0,0.0,0.0,1198.0,100.0
26.47,0.0,550.0,0.0,0.0,0.0,0.0,1201.0,100.0
26.47,0.0,560.0,0.0,0.0,0.0,0.0,1208.0,100.0
26.53,40.0,567.0,0.0,0.0,0.0,0.0,1200.0,100.0
26.43,0.0,570.0,0.0,0.0,10.0,0.0,1207.0,100.0
26.43,0.0,585.0,0.0,0.0,16.0,0.0,1206.0,100.0
26.49,0.0,593.0,0.0,0.0,35.0,0.0,1209.0,100.0
26.47,0.0,595.0,0.0,0.0,50.0,0.0,1205.0,100.0
26.55,0.0,594.0,0.0,0.0,99.0,0.0,1240.0,100.0
26.55,0.0,593.0,0.0,0.0,86.0,0.0,1241.0,100.0
26.59,0.0,613.0,0.0,0.0,95.0,0.0,1255.0,100.0
26.59,0.0,611.0,0.0,0.0,115.0,0.0,1258.0,100.0
26.59,0.0,729.0,0.0,0.0,100.0,0.0,1251.0,100.0
26.55,0.0,609.0,0.0,0.0,127.0,0.0,1259.0,100.0
26.55,0.0,610.0,0.0,0.0,128.0,0.0,1251.0,100.0
26.55,0.0,608.0,0.0,0.0,124.0,0.0,1253.0,100.0
26.59,0.0,624.0,0.0,0.0,586.0,0.0,1259.0,100.0
26.53,0.0,615.0,0.0,0.0,133.0,0.0,1257.0,100.0
26.61,0.0,624.0,0.0,0.0,117.0,0.0,1256.0,100.0
26.55,0.0,623.0,0.0,0.0,130.0,0.0,1266.0,100.0
26.59,0.0,625.0,0.0,0.0,126.0,0.0,1260.0,100.0
26.55,0.0,624.0,0.0,0.0,128.0,0.0,1252.0,100.0
26.65,0.0,624.0,0.0,0.0,143.0,0.0,1253.0,100.0
26.55,0.0,631.0,0.0,0.0,137.0,0.0,1254.0,100.0
26.47,0.0,619.0,0.0,0.0,142.0,0.0,1253.0,100.0
26.59,0.0,627.0,0.0,0.0,128.0,0.0,1258.0,100.0
26.61,0.0,624.0,0.0,0.0,212.0,0.0,1251.0,100.0
26.47,0.0,629.0,0.0,0.0,126.0,0.0,1254.0,100.0
26.65,0.0,640.0,0.0,0.0,144.0,0.0,1250.0,100.0
26.61,0.0,631.0,0.0,0.0,146.0,0.0,1252.0,100.0
26.55,0.0,628.0,0.0,0.0,143.0,0.0,1243.0,100.0
26.59,0.0,629.0,0.0,0.0,141.0,0.0,1245.0,100.0
26.65,0.0,631.0,0.0,0.0,0.0,0.0,1247.0,100.0
26.65,0.0,628.0,0.0,0.0,128.0,0.0,1243.0,100.0
26.55,0.0,630.0,0.0,0.0,145.0,0.0,1245.0,100.0
26.65,0.0,626.0,0.0,0.0,162.0,0.0,1247.0,100.0
26.61,0.0,631.0,0.0,0.0,144.0,0.0,1245.0,100.0
26.65,0.0,635.0,0.0,0.0,150.0,0.0,1246.0,100.0
26.53,0.0,624.0,0.0,0.0,142.0,0.0,1233.0,100.0
26.55,0.0,637.0,0.0,0.0,140.0,0.0,1248.0,100.0
26.49,0.0,637.0,0.0,0.0,129.0,0.0,1251.0,100.0
26.55,0.0,633.0,0.0,0.0,144.0,0.0,1246.0,100.0
26.55,0.0,726.0,0.0,0.0,143.0,0.0,1249.0,100.0
26.53,0.0,633.0,0.0,0.0,135.0,0.0,1241.0,100.0
26.59,0.0,638.0,0.0,0.0,134.0,0.0,1250.0,100.0
26.59,0.0,640.0,0.0,0.0,144.0,0.0,1236.0,100.0
26.53,0.0,0.0,0.0,0.0,0.0,0.0,0.0,23.0
26.99,0.0,0.0,0.0,0.0,0.0,0.0,0.0,25.0
26.87,0.0,0.0,0.0,0.0,0.0,0.0,0.0,28.0
26.91,0.0,0.0,0.0,0.0,0.0,0.0,0.0,35.0
26.91,0.0,0.0,0.0,0.0,0.0,0.0,0.0,35.0
26.87,0.0,0.0,0.0,0.0,0.0,0.0,0.0,35.0
27.43,0.0,0.0,0.0,0.0,0.0,0.0,0.0,35.0
27.63,0.0,0.0,0.0,0.0,0.0,0.0,0.0,35.0
27.61,0.0,0.0,0.0,0.0,0.0,0.0,0.0,35.0
27.63,0.0,0.0,0.0,0.0,0.0,0.0,0.0,35.0
27.29,0.0,0.0,0.0,0.0,0.0,0.0,0.0,35.0
26.85,0.0,0.0,0.0,0.0,0.0,0.0,0.0,35.0
26.93,0.0,0.0,0.0,0.0,0.0,0.0,0.0,35.0
26.93,0.0,0.0,0.0,0.0,0.0,0.0,0.0,35.0
26.93,0.0,0.0,0.0,0.0,0.0,0.0,0.0,35.0
26.93,0.0,0.0,0.0,0.0,0.0,0.0,0.0,35.0
26.99,0.0,0.0,0.0,0.0,0.0,0.0,0.0,35.0
26.91,0.0,0.0,0.0,0.0,0.0,0.0,0.0,35.0
26.87,0.0,0.0,0.0,0.0,0.0,0.0,0.0,35.0
26.85,0.0,0.0,0.0,0.0,0.0,0.0,0.0,35.0
26.97,0.0,0.0,0.0,0.0,0.0,0.0,0.0,35.0
27.11,0.0,0.0,0.0,0.0,0.0,0.0,0.0,35.0
27.17,0.0,0.0,0.0,0.0,0.0,0.0,0.0,35.0
27.25,0.0,0.0,0.0,0.0,0.0,0.0,0.0,35.0
27.37,0.0,0.0,0.0,0.0,0.0,0.0,0.0,35.0
27.37,0.0,0.0,0.0,0.0,0.0,0.0,0.0,35.0
27.41,0.0,0.0,0.0,0.0,0.0,0.0,0.0,35.0
27.31,104.0,0.0,0.0,0.0,0.0,0.0,0.0,35.0
27.23,0.0,0.0,0.0,0.0,0.0,0.0,0.0,35.0
27.41,0.0,0.0,0.0,0.0,0.0,0.0,0.0,35.0
27.49,0.0,0.0,0.0,0.0,0.0,0.0,0.0,35.0
27.69,0.0,0.0,0.0,0.0,0.0,0.0,0.0,35.0
27.67,0.0,0.0,0.0,0.0,0.0,0.0,0.0,35.0
27.67,0.0,0.0,0.0,0.0,0.0,0.0,0.0,35.0
27.69,0.0,0.0,0.0,0.0,0.0,0.0,0.0,35.0
27.69,0.0,0.0,0.0,0.0,0.0,0.0,0.0,35.0
27.69,0.0,0.0,0.0,0.0,0.0,0.0,0.0,35.0
27.63,0.0,0.0,0.0,0.0,0.0,0.0,0.0,35.0
27.69,0.0,0.0,0.0,0.0,0.0,0.0,0.0,35.0
27.61,0.0,0.0,0.0,0.0,0.0,0.0,0.0,35.0
27.59,0.0,0.0,0.0,0.0,0.0,0.0,0.0,35.0
27.61,0.0,0.0,0.0,0.0,0.0,0.0,0.0,35.0
27.59,0.0,0.0,0.0,0.0,0.0,0.0,0.0,15.0
27.35,0.0,0.0,0.0,0.0,0.0,0.0,0.0,15.0
27.31,0.0,0.0,0.0,0.0,0.0,0.0,0.0,15.0
27.37,0.0,0.0,0.0,0.0,0.0,0.0,0.0,15.0
27.81,0.0,0.0,0.0,0.0,0.0,0.0,0.0,15.0
29.37,0.0,0.0,0.0,0.0,0.0,0.0,0.0,15.0
34.23,0.0,0.0,0.0,64.0,0.0,0.0,0.0,15.0
35.99,0.0,0.0,0.0,0.0,0.0,0.0,0.0,15.0
36.21,0.0,0.0,0.0,0.0,0.0,0.0,0.0,15.0
36.95,0.0,0.0,0.0,0.0,0.0,0.0,0.0,17.0
36.97,0.0,0.0,0.0,0.0,0.0,0.0,0.0,25.0
37.09,0.0,0.0,0.0,0.0,0.0,0.0,0.0,35.0
36.87,0.0,0.0,0.0,0.0,0.0,0.0,0.0,45.0
36.79,0.0,0.0,0.0,0.0,0.0,0.0,0.0,55.0
37.17,0.0,0.0,0.0,0.0,0.0,0.0,54.0,66.0
37.09,0.0,511.0,0.0,0.0,0.0,0.0,1923.0,76.0
36.85,0.0,641.0,0.0,0.0,0.0,0.0,2202.0,86.0
36.85,0.0,656.0,0.0,0.0,0.0,0.0,2215.0,96.0
36.77,0.0,701.0,0.0,0.0,0.0,0.0,2317.0,100.0
36.71,0.0,709.0,0.0,0.0,0.0,0.0,2340.0,100.0
36.71,0.0,704.0,0.0,0.0,0.0,0.0,2339.0,100.0
36.71,0.0,713.0,0.0,0.0,54.0,0.0,2340.0,100.0
36.71,0.0,708.0,0.0,0.0,16.0,0.0,2324.0,100.0
36.73,0.0,707.0,0.0,0.0,0.0,0.0,2279.0,100.0
36.71,0.0,583.0,0.0,0.0,0.0,0.0,2301.0,100.0
36.77,0.0,583.0,0.0,0.0,0.0,0.0,2317.0,100.0
36.77,0.0,537.0,0.0,0.0,0.0,0.0,2285.0,100.0
36.79,0.0,506.0,0.0,0.0,0.0,0.0,2306.0,100.0
36.73,0.0,481.0,0.0,0.0,0.0,0.0,2317.0,100.0
36.77,0.0,473.0,0.0,0.0,0.0,0.0,2310.0,100.0
36.81,0.0,399.0,0.0,0.0,0.0,0.0,2324.0,100.0
36.85,0.0,474.0,0.0,0.0,0.0,0.0,2325.0,100.0
36.79,0.0,460.0,0.0,0.0,0.0,0.0,2312.0,100.0
36.87,0.0,511.0,0.0,0.0,0.0,0.0,2302.0,100.0
36.87,0.0,560.0,0.0,0.0,0.0,0.0,2267.0,100.0
36.85,0.0,591.0,0.0,0.0,0.0,0.0,2221.0,100.0
36.85,0.0,616.0,0.0,0.0,0.0,0.0,2151.0,100.0
36.87,0.0,626.0,0.0,0.0,0.0,0.0,2146.0,100.0
36.95,0.0,636.0,0.0,0.0,0.0,0.0,2137.0,100.0
36.95,0.0,612.0,0.0,0.0,0.0,0.0,2178.0,100.0
36.95,0.0,607.0,0.0,0.0,0.0,0.0,2184.0,100.0
36.97,0.0,624.0,0.0,0.0,0.0,0.0,2158.0,100.0
37.01,0.0,650.0,0.0,0.0,0.0,0.0,2134.0,100.0
36.93,0.0,646.0,0.0,0.0,0.0,0.0,2140.0,100.0
36.95,0.0,644.0,0.0,0.0,0.0,0.0,2141.0,100.0
36.89,0.0,661.0,0.0,0.0,0.0,0.0,2108.0,100.0
36.93,0.0,671.0,0.0,0.0,0.0,0.0,2088.0,100.0
36.89,0.0,677.0,0.0,0.0,0.0,0.0,2093.0,100.0
36.79,0.0,677.0,0.0,0.0,0.0,0.0,2105.0,100.0
36.87,0.0,691.0,0.0,0.0,0.0,0.0,2080.0,100.0
36.87,0.0,709.0,0.0,0.0,22.0,0.0,2078.0,100.0
36.93,0.0,715.0,0.0,0.0,35.0,0.0,2110.0,100.0
36.87,0.0,720.0,0.0,0.0,43.0,0.0,2125.0,100.0
36.87,0.0,722.0,0.0,0.0,25.0,0.0,2122.0,100.0
36.87,0.0,721.0,0.0,0.0,31.0,0.0,2125.0,100.0
36.95,0.0,716.0,0.0,0.0,16.0,0.0,2108.0,100.0
36.97,0.0,706.0,0.0,0.0,29.0,0.0,2125.0,100.0
36.95,0.0,720.0,0.0,0.0,27.0,0.0,2123.0,100.0
36.87,0.0,848.0,0.0,0.0,0.0,0.0,2118.0,100.0
36.97,0.0,722.0,0.0,0.0,32.0,0.0,2115.0,100.0
37.01,0.0,720.0,0.0,0.0,36.0,0.0,2117.0,100.0
36.89,0.0,727.0,0.0,0.0,42.0,0.0,2118.0,100.0
36.89,0.0,721.0,0.0,0.0,26.0,0.0,2127.0,100.0
36.93,0.0,724.0,0.0,0.0,23.0,0.0,2120.0,100.0
36.95,0.0,729.0,0.0,0.0,31.0,0.0,2121.0,100.0
36.89,0.0,721.0,0.0,0.0,31.0,0.0,2123.0,100.0
36.93,0.0,728.0,0.0,0.0,35.0,0.0,2134.0,100.0
36.93,0.0,718.0,0.0,0.0,16.0,0.0,2133.0,100.0
36.89,0.0,704.0,0.0,0.0,23.0,0.0,2155.0,100.0
36.93,0.0,707.0,0.0,0.0,16.0,0.0,2163.0,100.0
36.93,0.0,673.0,0.0,0.0,0.0,0.0,2158.0,100.0
36.93,0.0,686.0,0.0,0.0,0.0,0.0,2180.0,100.0
36.87,0.0,682.0,0.0,0.0,0.0,0.0,2186.0,100.0
36.89,0.0,628.0,0.0,0.0,0.0,0.0,2209.0,100.0
36.89,0.0,598.0,0.0,0.0,0.0,0.0,2240.0,100.0
36.89,0.0,597.0,0.0,0.0,0.0,0.0,2260.0,100.0
36.85,0.0,432.0,0.0,0.0,0.0,0.0,2269.0,100.0
36.93,0.0,577.0,0.0,0.0,0.0,0.0,2276.0,100.0
36.93,0.0,560.0,0.0,0.0,0.0,0.0,2299.0,100.0
36.95,0.0,502.0,0.0,0.0,0.0,0.0,2322.0,100.0
36.93,0.0,451.0,0.0,0.0,0.0,0.0,2340.0,100.0
36.87,0.0,464.0,0.0,0.0,0.0,0.0,2369.0,100.0
36.93,0.0,465.0,0.0,0.0,0.0,0.0,2365.0,100.0
36.97,0.0,465.0,0.0,0.0,0.0,0.0,2375.0,100.0
36.93,0.0,464.0,0.0,0.0,0.0,0.0,2380.0,100.0
36.95,0.0,468.0,0.0,0.0,0.0,0.0,2376.0,100.0
37.01,0.0,467.0,0.0,0.0,0.0,0.0,2371.0,100.0
37.03,0.0,470.0,0.0,0.0,0.0,0.0,2373.0,100.0
36.97,0.0,473.0,0.0,0.0,0.0,0.0,2382.0,100.0
36.95,0.0,480.0,0.0,0.0,0.0,0.0,2384.0,100.0
36.89,0.0,475.0,0.0,0.0,0.0,0.0,2380.0,100.0
36.85,0.0,475.0,0.0,0.0,0.0,0.0,2389.0,100.0
36.85,0.0,477.0,0.0,0.0,0.0,0.0,2387.0,100.0
36.93,0.0,477.0,0.0,0.0,0.0,0.0,2389.0,100.0
36.87,0.0,465.0,0.0,0.0,0.0,0.0,2385.0,100.0
36.85,0.0,482.0,0.0,0.0,0.0,0.0,2391.0,100.0
36.93,0.0,480.0,0.0,0.0,0.0,0.0,2388.0,100.0
36.87,0.0,483.0,0.0,0.0,0.0,0.0,2397.0,100.0
36.93,0.0,481.0,0.0,0.0,0.0,0.0,2388.0,100.0
36.95,0.0,476.0,0.0,0.0,0.0,0.0,2382.0,100.0
36.97,0.0,501.0,0.0,0.0,0.0,0.0,2379.0,100.0
36.95,0.0,481.0,0.0,0.0,0.0,0.0,2390.0,100.0
36.95,0.0,480.0,0.0,0.0,0.0,0.0,2388.0,100.0
36.97,0.0,471.0,0.0,0.0,0.0,0.0,2387.0,100.0
36.95,0.0,488.0,0.0,0.0,0.0,0.0,2384.0,15.0
36.81,0.0,0.0,0.0,0.0,0.0,0.0,1.0,15.0
28.01,0.0,0.0,0.0,0.0,0.0,0.0,0.0,15.0
27.53,0.0,0.0,0.0,0.0,0.0,0.0,0.0,15.0
27.43,0.0,0.0,0.0,0.0,0.0,0.0,0.0,15.0
27.47,0.0,0.0,0.0,0.0,0.0,0.0,0.0,15.0
27.41,0.0,0.0,0.0,0.0,0.0,0.0,0.0,15.0
27.37,0.0,0.0,0.0,0.0,0.0,0.0,0.0,15.0
27.87,0.0,0.0,0.0,0.0,0.0,0.0,0.0,15.0
27.87,0.0,0.0,0.0,0.0,0.0,0.0,0.0,15.0
27.87,0.0,0.0,0.0,0.0,0.0,0.0,0.0,15.0
28.05,0.0,0.0,0.0,0.0,0.0,0.0,0.0,15.0
27.25,0.0,0.0,0.0,0.0,0.0,0.0,0.0,15.0
27.21,0.0,0.0,0.0,0.0,0.0,0.0,0.0,15.0
27.05,0.0,0.0,0.0,0.0,0.0,0.0,0.0,15.0
27.09,0.0,0.0,0.0,0.0,0.0,0.0,0.0,15.0
27.15,0.0,0.0,0.0,0.0,0.0,0.0,0.0,15.0
27.17,0.0,0.0,0.0,0.0,0.0,0.0,0.0,15.0
27.15,0.0,0.0,0.0,0.0,0.0,0.0,0.0,15.0
27.17,0.0,0.0,0.0,0.0,0.0,0.0,0.0,15.0
27.15,0.0,0.0,0.0,0.0,0.0,0.0,0.0,15.0
27.21,0.0,0.0,0.0,0.0,0.0,0.0,0.0,15.0
27.21,0.0,0.0,0.0,0.0,0.0,0.0,0.0,15.0
27.25,0.0,0.0,0.0,0.0,0.0,0.0,0.0,15.0
27.35,0.0,0.0,0.0,0.0,0.0,0.0,0.0,15.0
27.41,0.0,0.0,0.0,0.0,0.0,0.0,0.0,15.0
27.41,0.0,0.0,0.0,0.0,0.0,0.0,0.0,15.0
27.29,0.0,0.0,0.0,0.0,0.0,0.0,0.0,15.0
27.41,0.0,0.0,0.0,0.0,0.0,0.0,0.0,15.0
27.43,0.0,0.0,0.0,0.0,0.0,0.0,0.0,15.0
27.41,0.0,0.0,0.0,0.0,0.0,0.0,0.0,15.0
27.43,0.0,0.0,0.0,0.0,0.0,0.0,0.0,15.0
27.43,0.0,0.0,0.0,0.0,0.0,0.0,0.0,15.0
27.37,0.0,0.0,0.0,0.0,0.0,0.0,0.0,15.0
27.41,0.0,0.0,0.0,0.0,0.0,0.0,0.0,15.0
27.41,0.0,0.0,0.0,0.0,0.0,0.0,0.0,15.0
27.47,0.0,0.0,0.0,0.0,0.0,0.0,0.0,15.0
27.35,0.0,0.0,0.0,0.0,0.0,0.0,0.0,15.0
27.35,0.0,0.0,0.0,0.0,0.0,0.0,0.0,15.0
27.29,0.0,0.0,0.0,0.0,0.0,0.0,0.0,15.0
27.29,0.0,0.0,0.0,0.0,0.0,0.0,0.0,15.0
27.29,0.0,0.0,0.0,0.0,0.0,0.0,0.0,15.0
27.29,0.0,0.0,0.0,0.0,0.0,0.0,0.0,15.0
27.31,0.0,0.0,0.0,0.0,0.0,0.0,0.0,15.0
27.29,0.0,0.0,0.0,0.0,0.0,0.0,0.0,15.0
27.25,0.0,0.0,0.0,0.0,0.0,0.0,0.0,15.0
27.25,0.0,0.0,0.0,0.0,0.0,0.0,0.0,15.0
27.21,0.0,0.0,0.0,0.0,0.0,0.0,0.0,15.0
27.21,0.0,0.0,0.0,0.0,0.0,0.0,0.0,15.0
27.23,0.0,0.0,0.0,0.0,0.0,0.0,0.0,15.0
27.15,0.0,0.0,0.0,0.0,0.0,0.0,0.0,15.0
27.03,0.0,0.0,0.0,0.0,0.0,0.0,0.0,15.0
27.09,0.0,0.0,0.0,0.0,0.0,0.0,0.0,15.0
27.11,0.0,0.0,0.0,0.0,0.0,0.0,0.0,15.0
27.21,0.0,0.0,0.0,0.0,0.0,0.0,0.0,25.0
27.17,0.0,0.0,0.0,0.0,0.0,0.0,0.0,34.0
27.23,0.0,0.0,0.0,0.0,0.0,0.0,0.0,45.0
27.31,0.0,0.0,0.0,0.0,0.0,0.0,0.0,54.0
27.37,0.0,0.0,0.0,0.0,0.0,0.0,0.0,64.0
27.43,0.0,0.0,0.0,0.0,0.0,0.0,0.0,73.0
27.29,0.0,0.0,0.0,0.0,0.0,0.0,0.0,82.0
27.17,0.0,0.0,0.0,0.0,0.0,0.0,0.0,87.0
27.21,0.0,0.0,0.0,0.0,0.0,0.0,0.0,87.0
27.15,0.0,0.0,0.0,0.0,0.0,0.0,0.0,92.0
27.29,0.0,0.0,0.0,0.0,0.0,0.0,0.0,100.0
27.23,0.0,0.0,0.0,0.0,0.0,0.0,0.0,100.0
27.21,0.0,0.0,0.0,0.0,0.0,0.0,0.0,100.0
27.15,0.0,0.0,102.0,0.0,0.0,0.0,0.0,100.0
27.21,0.0,0.0,176.0,0.0,0.0,0.0,0.0,100.0
27.17,0.0,0.0,241.0,0.0,0.0,0.0,0.0,100.0
27.23,0.0,0.0,309.0,0.0,0.0,0.0,0.0,100.0
27.17,0.0,0.0,379.0,0.0,0.0,0.0,0.0,100.0
27.25,0.0,0.0,370.0,0.0,0.0,0.0,0.0,100.0
27.17,0.0,0.0,385.0,0.0,0.0,0.0,0.0,100.0
27.21,0.0,0.0,385.0,0.0,0.0,0.0,0.0,100.0
27.17,0.0,0.0,425.0,0.0,0.0,0.0,0.0,100.0
27.11,0.0,0.0,432.0,0.0,0.0,0.0,0.0,100.0
27.23,0.0,0.0,451.0,0.0,0.0,0.0,3.0,100.0
27.21,0.0,0.0,454.0,0.0,0.0,0.0,0.0,100.0
27.17,0.0,0.0,486.0,0.0,0.0,0.0,0.0,100.0
27.17,0.0,0.0,507.0,0.0,0.0,0.0,0.0,100.0
27.21,0.0,0.0,539.0,0.0,0.0,0.0,0.0,100.0
27.17,0.0,0.0,555.0,0.0,0.0,0.0,0.0,100.0
27.17,0.0,0.0,579.0,0.0,0.0,0.0,0.0,100.0
27.17,0.0,0.0,587.0,0.0,0.0,0.0,0.0,100.0
27.17,0.0,0.0,630.0,0.0,0.0,0.0,0.0,100.0
27.25,0.0,0.0,635.0,0.0,0.0,0.0,0.0,100.0
27.23,0.0,0.0,647.0,0.0,0.0,0.0,0.0,100.0
27.17,0.0,0.0,650.0,0.0,0.0,0.0,0.0,100.0
27.17,0.0,0.0,640.0,0.0,0.0,0.0,0.0,100.0
27.17,0.0,0.0,652.0,0.0,0.0,0.0,0.0,100.0
27.17,0.0,0.0,655.0,0.0,0.0,0.0,0.0,100.0
27.15,0.0,0.0,653.0,0.0,0.0,0.0,0.0,100.0
27.17,0.0,0.0,664.0,0.0,0.0,0.0,0.0,100.0
27.15,0.0,0.0,666.0,0.0,0.0,0.0,0.0,100.0
27.17,0.0,0.0,650.0,0.0,0.0,0.0,0.0,100.0
27.15,0.0,0.0,666.0,0.0,0.0,0.0,0.0,100.0
27.17,0.0,0.0,671.0,0.0,0.0,0.0,0.0,100.0
27.15,0.0,0.0,667.0,0.0,0.0,0.0,0.0,100.0
27.15,0.0,0.0,675.0,0.0,0.0,0.0,0.0,100.0
27.17,0.0,0.0,670.0,0.0,0.0,0.0,0.0,100.0
27.17,0.0,0.0,682.0,0.0,0.0,0.0,0.0,100.0
27.11,0.0,0.0,685.0,0.0,0.0,0.0,0.0,100.0
27.15,0.0,0.0,683.0,0.0,0.0,0.0,0.0,100.0
27.15,0.0,0.0,687.0,0.0,0.0,0.0,0.0,100.0
27.17,0.0,0.0,692.0,0.0,0.0,0.0,0.0,100.0
27.17,0.0,0.0,688.0,0.0,0.0,0.0,0.0,100.0
27.17,0.0,0.0,1034.0,0.0,0.0,0.0,0.0,100.0
27.11,0.0,0.0,690.0,0.0,0.0,0.0,0.0,100.0
27.17,0.0,0.0,689.0,0.0,0.0,0.0,0.0,100.0
27.17,0.0,0.0,685.0,0.0,0.0,0.0,0.0,100.0
27.11,0.0,0.0,693.0,0.0,0.0,0.0,0.0,100.0
27.09,0.0,0.0,691.0,0.0,0.0,0.0,0.0,100.0
27.15,0.0,0.0,685.0,0.0,0.0,0.0,0.0,100.0
27.17,0.0,0.0,688.0,0.0,0.0,0.0,0.0,100.0
27.17,0.0,0.0,698.0,0.0,0.0,0.0,0.0,100.0
27.15,0.0,0.0,698.0,0.0,0.0,0.0,0.0,100.0
27.17,0.0,0.0,528.0,0.0,0.0,0.0,0.0,100.0
27.15,0.0,0.0,688.0,0.0,0.0,0.0,0.0,100.0
27.17,0.0,0.0,691.0,0.0,0.0,0.0,0.0,100.0
27.15,0.0,0.0,694.0,0.0,0.0,0.0,0.0,100.0
27.15,0.0,0.0,693.0,0.0,0.0,0.0,0.0,100.0
27.17,0.0,0.0,690.0,0.0,0.0,0.0,0.0,100.0
27.15,0.0,0.0,697.0,0.0,0.0,0.0,0.0,100.0
27.09,0.0,0.0,683.0,0.0,0.0,0.0,0.0,100.0
27.11,0.0,0.0,695.0,0.0,0.0,0.0,0.0,100.0
27.11,0.0,0.0,699.0,0.0,0.0,0.0,0.0,100.0
27.11,0.0,0.0,703.0,0.0,0.0,0.0,0.0,100.0
27.15,0.0,0.0,699.0,0.0,0.0,0.0,0.0,100.0
27.15,0.0,0.0,702.0,0.0,0.0,0.0,0.0,100.0
27.15,0.0,0.0,699.0,0.0,0.0,0.0,0.0,100.0
27.15,0.0,0.0,644.0,0.0,0.0,0.0,0.0,100.0
27.21,0.0,0.0,701.0,0.0,0.0,0.0,0.0,100.0
27.11,0.0,0.0,698.0,0.0,0.0,0.0,0.0,100.0
27.11,0.0,0.0,691.0,0.0,0.0,0.0,0.0,100.0
27.09,0.0,0.0,682.0,0.0,0.0,0.0,0.0,100.0
27.15,0.0,0.0,693.0,0.0,0.0,0.0,0.0,100.0
27.17,0.0,0.0,698.0,0.0,0.0,0.0,0.0,100.0
27.17,0.0,0.0,692.0,0.0,0.0,0.0,0.0,100.0
27.21,0.0,0.0,705.0,0.0,0.0,0.0,0.0,100.0
27.15,0.0,0.0,698.0,0.0,0.0,0.0,0.0,100.0
27.17,0.0,0.0,673.0,0.0,0.0,0.0,0.0,100.0
27.17,0.0,0.0,675.0,0.0,0.0,0.0,0.0,100.0
27.15,0.0,0.0,672.0,0.0,0.0,0.0,0.0,100.0
27.17,0.0,0.0,659.0,0.0,0.0,0.0,0.0,100.0
27.17,0.0,0.0,683.0,0.0,0.0,0.0,0.0,100.0
27.21,0.0,0.0,749.0,0.0,0.0,0.0,0.0,100.0
27.11,0.0,0.0,679.0,0.0,0.0,0.0,0.0,16.0
27.23,0.0,0.0,0.0,0.0,0.0,0.0,0.0,19.0
27.25,0.0,0.0,66.0,0.0,0.0,0.0,0.0,19.0
27.15,0.0,0.0,21.0,0.0,0.0,0.0,0.0,19.0
27.23,0.0,0.0,0.0,0.0,0.0,0.0,0.0,19.0
27.21,0.0,0.0,0.0,0.0,0.0,0.0,0.0,19.0
27.15,0.0,0.0,0.0,0.0,0.0,0.0,0.0,19.0
27.09,0.0,0.0,0.0,0.0,0.0,0.0,0.0,19.0
27.09,0.0,0.0,0.0,0.0,0.0,0.0,0.0,19.0
27.05,0.0,0.0,0.0,0.0,0.0,0.0,0.0,19.0
27.15,0.0,0.0,0.0,0.0,0.0,0.0,0.0,19.0
26.99,0.0,0.0,0.0,0.0,0.0,0.0,0.0,19.0
27.29,0.0,0.0,0.0,0.0,0.0,0.0,0.0,19.0
27.15,0.0,0.0,0.0,0.0,0.0,0.0,0.0,19.0
27.09,0.0,0.0,0.0,0.0,0.0,0.0,0.0,19.0
27.05,0.0,0.0,0.0,0.0,0.0,0.0,0.0,19.0
26.97,0.0,0.0,0.0,0.0,0.0,0.0,0.0,19.0
27.03,0.0,0.0,0.0,0.0,0.0,0.0,0.0,19.0
27.09,0.0,0.0,0.0,0.0,0.0,0.0,0.0,19.0
27.03,0.0,0.0,0.0,0.0,0.0,0.0,0.0,19.0
26.97,0.0,0.0,0.0,0.0,0.0,0.0,0.0,19.0
26.97,0.0,0.0,0.0,0.0,0.0,0.0,0.0,19.0
27.09,0.0,0.0,0.0,0.0,0.0,0.0,0.0,19.0
27.25,0.0,0.0,0.0,0.0,0.0,0.0,0.0,19.0
27.35,0.0,0.0,0.0,0.0,0.0,0.0,0.0,19.0
27.35,0.0,0.0,0.0,0.0,0.0,0.0,0.0,19.0
27.37,0.0,0.0,0.0,0.0,0.0,0.0,0.0,19.0
27.55,0.0,0.0,0.0,0.0,0.0,0.0,0.0,19.0
27.49,0.0,0.0,0.0,0.0,0.0,0.0,0.0,19.0
27.59,0.0,0.0,0.0,0.0,0.0,0.0,0.0,19.0
27.73,0.0,0.0,0.0,0.0,0.0,0.0,0.0,19.0
27.69,0.0,0.0,0.0,0.0,0.0,0.0,0.0,19.0
27.69,0.0,0.0,0.0,0.0,0.0,0.0,0.0,19.0
27.73,0.0,0.0,0.0,0.0,0.0,0.0,0.0,19.0
27.73,0.0,0.0,0.0,0.0,0.0,0.0,0.0,19.0
27.73,0.0,0.0,0.0,0.0,0.0,0.0,0.0,19.0
27.75,0.0,0.0,0.0,0.0,0.0,0.0,0.0,19.0
27.69,0.0,0.0,240.0,0.0,0.0,0.0,0.0,19.0
27.63,0.0,0.0,0.0,0.0,0.0,0.0,0.0,19.0
27.47,0.0,0.0,0.0,0.0,0.0,0.0,0.0,19.0
27.47,0.0,0.0,0.0,0.0,0.0,0.0,0.0,19.0
27.55,0.0,0.0,0.0,0.0,0.0,0.0,0.0,19.0
27.41,0.0,0.0,0.0,0.0,0.0,0.0,0.0,15.0
27.05,0.0,0.0,0.0,0.0,0.0,0.0,0.0,15.0
27.03,0.0,0.0,0.0,0.0,0.0,0.0,0.0,15.0
26.99,0.0,0.0,0.0,0.0,0.0,0.0,0.0,15.0
27.05,0.0,0.0,0.0,0.0,0.0,0.0,0.0,15.0
26.97,0.0,0.0,0.0,0.0,0.0,0.0,0.0,15.0
26.97,0.0,0.0,0.0,0.0,0.0,0.0,0.0,15.0
27.03,0.0,0.0,0.0,0.0,0.0,0.0,0.0,15.0
27.09,0.0,0.0,0.0,0.0,0.0,0.0,0.0,17.0
27.09,0.0,0.0,0.0,0.0,0.0,0.0,0.0,25.0
27.09,0.0,0.0,0.0,0.0,0.0,0.0,0.0,36.0
27.11,0.0,0.0,0.0,0.0,0.0,0.0,0.0,47.0
27.09,0.0,0.0,0.0,0.0,0.0,0.0,0.0,56.0
27.11,0.0,0.0,0.0,0.0,0.0,0.0,0.0,66.0
27.09,0.0,0.0,0.0,0.0,0.0,0.0,0.0,75.0
27.09,0.0,441.0,0.0,0.0,0.0,0.0,2258.0,85.0
27.05,0.0,491.0,0.0,0.0,158.0,0.0,2192.0,95.0
27.09,0.0,574.0,0.0,0.0,207.0,0.0,2259.0,99.0
27.05,0.0,593.0,0.0,0.0,198.0,0.0,2250.0,99.0
27.03,0.0,592.0,0.0,0.0,180.0,0.0,2260.0,99.0
26.99,0.0,546.0,0.0,0.0,134.0,0.0,2276.0,99.0
27.09,0.0,480.0,0.0,0.0,155.0,0.0,2310.0,99.0
27.09,0.0,463.0,0.0,0.0,179.0,0.0,2321.0,99.0
27.03,0.0,273.0,0.0,0.0,106.0,0.0,2403.0,100.0
27.03,0.0,260.0,0.0,0.0,119.0,0.0,2438.0,100.0
27.05,0.0,210.0,0.0,0.0,117.0,0.0,2370.0,100.0
27.03,0.0,178.0,0.0,0.0,115.0,0.0,2366.0,100.0
27.05,0.0,0.0,0.0,0.0,67.0,0.0,2327.0,100.0
26.99,0.0,65.0,0.0,0.0,129.0,0.0,2303.0,100.0
27.03,0.0,0.0,0.0,0.0,80.0,0.0,2251.0,100.0
27.03,0.0,0.0,0.0,0.0,64.0,0.0,2404.0,100.0
26.99,0.0,0.0,0.0,0.0,61.0,0.0,2400.0,100.0
26.99,0.0,0.0,0.0,0.0,69.0,0.0,2409.0,100.0
26.99,0.0,0.0,0.0,0.0,71.0,0.0,2420.0,100.0
26.97,0.0,0.0,0.0,0.0,70.0,0.0,2426.0,100.0
26.99,0.0,0.0,0.0,0.0,80.0,0.0,2426.0,100.0
26.93,0.0,0.0,0.0,0.0,69.0,0.0,2430.0,100.0
26.97,0.0,0.0,0.0,0.0,77.0,0.0,2430.0,100.0
26.99,0.0,0.0,0.0,0.0,75.0,0.0,2450.0,100.0
26.93,0.0,0.0,0.0,0.0,78.0,0.0,2449.0,100.0
26.93,0.0,0.0,0.0,0.0,87.0,0.0,2414.0,100.0
26.97,0.0,0.0,0.0,0.0,96.0,0.0,2432.0,100.0
26.93,0.0,0.0,0.0,0.0,96.0,0.0,2382.0,100.0
26.93,0.0,0.0,0.0,0.0,83.0,0.0,2424.0,100.0
26.87,0.0,0.0,0.0,0.0,80.0,0.0,2418.0,100.0
27.03,0.0,0.0,0.0,0.0,102.0,0.0,2441.0,100.0
26.99,0.0,0.0,0.0,0.0,100.0,0.0,2443.0,100.0
26.93,0.0,0.0,0.0,0.0,95.0,0.0,2452.0,100.0
26.97,0.0,0.0,0.0,0.0,92.0,0.0,2459.0,100.0
26.97,0.0,0.0,0.0,0.0,92.0,0.0,2451.0,100.0
26.97,0.0,60.0,0.0,0.0,124.0,0.0,2332.0,100.0
26.97,0.0,225.0,0.0,0.0,65.0,0.0,2222.0,100.0
26.93,0.0,240.0,0.0,0.0,79.0,0.0,2265.0,100.0
27.03,0.0,240.0,0.0,0.0,109.0,0.0,2098.0,100.0
27.03,0.0,347.0,0.0,0.0,64.0,0.0,2184.0,100.0
26.93,0.0,346.0,0.0,0.0,36.0,0.0,2172.0,100.0
26.97,0.0,454.0,0.0,0.0,0.0,0.0,2057.0,100.0
26.85,0.0,480.0,0.0,0.0,0.0,0.0,2097.0,100.0
26.87,0.0,560.0,0.0,0.0,0.0,0.0,1953.0,100.0
26.91,0.0,538.0,0.0,0.0,0.0,0.0,1932.0,100.0
26.87,0.0,598.0,0.0,0.0,0.0,0.0,1827.0,100.0
26.85,0.0,602.0,0.0,0.0,0.0,0.0,1881.0,100.0
26.93,0.0,615.0,0.0,0.0,0.0,0.0,1865.0,100.0
26.93,0.0,579.0,0.0,0.0,0.0,0.0,1894.0,100.0
26.83,0.0,653.0,0.0,0.0,0.0,0.0,1811.0,100.0
26.87,0.0,627.0,0.0,0.0,0.0,0.0,1841.0,100.0
26.87,0.0,663.0,0.0,0.0,0.0,0.0,1817.0,100.0
26.85,0.0,678.0,0.0,0.0,2.0,0.0,1825.0,100.0
26.87,0.0,688.0,0.0,0.0,0.0,0.0,1783.0,100.0
26.93,0.0,671.0,0.0,0.0,0.0,0.0,1791.0,100.0
26.85,0.0,682.0,0.0,0.0,0.0,0.0,1836.0,100.0
26.91,0.0,668.0,0.0,0.0,6.0,0.0,1869.0,100.0
26.93,0.0,693.0,0.0,0.0,0.0,0.0,1832.0,100.0
26.91,0.0,671.0,0.0,0.0,0.0,0.0,1845.0,100.0
26.91,0.0,689.0,0.0,0.0,0.0,0.0,1844.0,100.0
26.85,0.0,691.0,0.0,0.0,1.0,0.0,1853.0,100.0
26.85,0.0,702.0,0.0,0.0,0.0,0.0,1852.0,100.0
26.91,0.0,693.0,0.0,0.0,0.0,0.0,1869.0,100.0
26.93,0.0,706.0,0.0,0.0,15.0,0.0,1851.0,100.0
26.85,0.0,681.0,304.0,0.0,16.0,0.0,1874.0,100.0
26.83,0.0,666.0,0.0,0.0,0.0,0.0,1904.0,100.0
26.85,0.0,673.0,0.0,0.0,0.0,0.0,1914.0,100.0
26.77,0.0,674.0,0.0,0.0,0.0,0.0,1903.0,100.0
26.79,0.0,677.0,0.0,0.0,0.0,0.0,1919.0,100.0
26.87,0.0,670.0,0.0,0.0,0.0,0.0,1917.0,100.0
26.85,0.0,666.0,0.0,0.0,0.0,0.0,1915.0,100.0
26.73,0.0,642.0,0.0,0.0,0.0,0.0,1974.0,100.0
26.79,0.0,599.0,0.0,0.0,0.0,0.0,2076.0,100.0
26.71,0.0,425.0,0.0,0.0,0.0,0.0,2223.0,100.0
26.79,0.0,268.0,0.0,0.0,0.0,0.0,2284.0,100.0
26.73,0.0,288.0,0.0,0.0,0.0,0.0,2240.0,100.0
26.77,0.0,0.0,0.0,0.0,0.0,0.0,2351.0,100.0
26.77,0.0,0.0,0.0,0.0,0.0,0.0,2345.0,100.0
26.79,0.0,4.0,0.0,0.0,0.0,0.0,2362.0,100.0
26.73,0.0,22.0,0.0,0.0,0.0,0.0,2373.0,100.0
26.73,0.0,0.0,0.0,0.0,0.0,0.0,2331.0,100.0
26.71,0.0,24.0,0.0,0.0,0.0,0.0,2333.0,100.0
26.77,0.0,0.0,0.0,0.0,0.0,0.0,2363.0,100.0
26.73,16.0,0.0,0.0,0.0,0.0,0.0,2367.0,100.0
26.61,0.0,0.0,0.0,0.0,0.0,0.0,2366.0,100.0
26.71,0.0,0.0,0.0,0.0,0.0,0.0,2366.0,100.0
26.71,0.0,0.0,0.0,0.0,0.0,0.0,2373.0,100.0
26.71,0.0,1.0,0.0,0.0,0.0,0.0,2377.0,100.0
26.67,0.0,4.0,0.0,0.0,0.0,0.0,2374.0,100.0
26.79,0.0,0.0,0.0,0.0,0.0,0.0,28.0,20.0
26.93,0.0,0.0,0.0,0.0,0.0,0.0,0.0,20.0
27.09,0.0,0.0,0.0,0.0,0.0,0.0,0.0,28.0
27.09,0.0,0.0,0.0,0.0,0.0,0.0,0.0,31.0
27.03,0.0,0.0,0.0,0.0,0.0,0.0,0.0,31.0
27.09,0.0,0.0,0.0,0.0,0.0,0.0,0.0,31.0
27.11,0.0,0.0,0.0,0.0,0.0,0.0,0.0,31.0
27.17,0.0,0.0,0.0,0.0,0.0,0.0,0.0,31.0
27.29,0.0,0.0,0.0,0.0,0.0,0.0,0.0,31.0
27.29,0.0,0.0,0.0,0.0,0.0,0.0,0.0,31.0
27.11,0.0,0.0,0.0,0.0,0.0,0.0,0.0,31.0
27.09,0.0,0.0,0.0,0.0,0.0,0.0,0.0,31.0
27.15,0.0,0.0,0.0,0.0,0.0,0.0,0.0,31.0
27.17,0.0,0.0,0.0,0.0,0.0,0.0,0.0,31.0
27.15,0.0,0.0,0.0,0.0,0.0,0.0,0.0,31.0
27.11,0.0,0.0,0.0,0.0,0.0,0.0,0.0,31.0
27.03,0.0,0.0,0.0,0.0,0.0,0.0,0.0,31.0
26.91,0.0,0.0,0.0,0.0,0.0,0.0,0.0,31.0
26.83,0.0,0.0,0.0,0.0,0.0,0.0,0.0,31.0
26.77,0.0,0.0,0.0,0.0,0.0,0.0,0.0,31.0
26.77,0.0,0.0,0.0,0.0,0.0,0.0,0.0,31.0
26.85,0.0,0.0,0.0,0.0,0.0,0.0,0.0,31.0
26.93,0.0,0.0,0.0,0.0,0.0,0.0,0.0,31.0
26.99,0.0,0.0,0.0,0.0,0.0,0.0,0.0,31.0
27.09,0.0,0.0,0.0,0.0,0.0,0.0,0.0,31.0
27.11,0.0,0.0,0.0,0.0,0.0,0.0,0.0,31.0
27.15,0.0,0.0,0.0,0.0,0.0,0.0,0.0,31.0
27.17,0.0,0.0,0.0,0.0,0.0,0.0,0.0,31.0
27.21,0.0,0.0,0.0,0.0,0.0,0.0,0.0,31.0
27.17,0.0,0.0,0.0,0.0,0.0,0.0,0.0,31.0
27.23,0.0,0.0,0.0,0.0,0.0,0.0,0.0,31.0
27.21,0.0,0.0,0.0,0.0,0.0,0.0,0.0,31.0
27.25,0.0,0.0,0.0,0.0,0.0,0.0,0.0,31.0
27.31,0.0,0.0,0.0,0.0,0.0,0.0,0.0,31.0
27.29,0.0,0.0,0.0,0.0,0.0,0.0,0.0,31.0
27.29,0.0,0.0,0.0,0.0,0.0,0.0,0.0,31.0
27.25,0.0,0.0,0.0,0.0,0.0,0.0,0.0,31.0
27.29,0.0,0.0,0.0,0.0,0.0,0.0,0.0,31.0
27.31,0.0,0.0,0.0,0.0,0.0,0.0,0.0,31.0
27.37,0.0,0.0,0.0,0.0,0.0,0.0,0.0,31.0
27.53,0.0,0.0,0.0,0.0,0.0,0.0,0.0,31.0
27.53,0.0,0.0,0.0,0.0,0.0,0.0,0.0,15.0
27.17,0.0,0.0,0.0,0.0,0.0,0.0,0.0,15.0
27.15,0.0,0.0,0.0,0.0,0.0,0.0,0.0,15.0
27.09,0.0,0.0,0.0,0.0,0.0,0.0,0.0,15.0
27.67,0.0,0.0,0.0,0.0,0.0,0.0,0.0,15.0
28.91,0.0,0.0,0.0,0.0,0.0,0.0,0.0,15.0
31.39,0.0,0.0,0.0,0.0,0.0,0.0,0.0,15.0
33.71,0.0,0.0,0.0,0.0,0.0,0.0,0.0,15.0
36.37,0.0,0.0,0.0,0.0,0.0,0.0,0.0,15.0
36.45,0.0,0.0,0.0,0.0,0.0,0.0,0.0,15.0
36.63,0.0,0.0,0.0,0.0,0.0,0.0,0.0,15.0
37.55,0.0,0.0,0.0,0.0,0.0,0.0,0.0,18.0
37.63,0.0,0.0,0.0,0.0,0.0,0.0,0.0,18.0
37.93,0.0,0.0,0.0,0.0,0.0,0.0,0.0,18.0
36.97,0.0,0.0,0.0,0.0,0.0,0.0,0.0,24.0
36.93,0.0,0.0,0.0,0.0,0.0,0.0,0.0,34.0
36.63,0.0,0.0,0.0,0.0,0.0,0.0,0.0,43.0
36.85,0.0,0.0,0.0,0.0,0.0,0.0,0.0,53.0
37.21,0.0,0.0,0.0,0.0,0.0,0.0,0.0,64.0
37.17,0.0,0.0,0.0,0.0,0.0,0.0,1031.0,74.0
37.27,0.0,0.0,0.0,0.0,0.0,0.0,2316.0,84.0
37.21,0.0,36.0,0.0,0.0,0.0,0.0,2596.0,94.0
37.17,0.0,0.0,0.0,0.0,18.0,0.0,2662.0,100.0
37.19,0.0,0.0,0.0,0.0,0.0,0.0,2688.0,100.0
37.17,0.0,0.0,0.0,0.0,0.0,0.0,2704.0,100.0
37.13,0.0,0.0,0.0,0.0,0.0,0.0,2691.0,100.0
37.21,0.0,0.0,0.0,0.0,0.0,0.0,2706.0,100.0
37.17,0.0,0.0,0.0,0.0,0.0,0.0,2698.0,100.0
37.25,0.0,0.0,0.0,0.0,0.0,0.0,2718.0,100.0
37.27,0.0,0.0,0.0,0.0,0.0,0.0,2685.0,100.0
37.25,0.0,0.0,0.0,0.0,0.0,0.0,2617.0,100.0
37.17,0.0,0.0,0.0,0.0,0.0,0.0,2576.0,100.0
37.25,0.0,0.0,0.0,0.0,0.0,0.0,2530.0,100.0
37.17,0.0,0.0,0.0,0.0,0.0,0.0,2482.0,100.0
37.17,0.0,0.0,0.0,0.0,0.0,0.0,2436.0,100.0
37.25,0.0,0.0,0.0,0.0,0.0,0.0,2428.0,100.0
37.27,0.0,24.0,0.0,0.0,0.0,0.0,2379.0,100.0
37.27,0.0,23.0,0.0,0.0,0.0,0.0,2376.0,100.0
37.33,0.0,32.0,0.0,0.0,0.0,0.0,2376.0,100.0
37.29,0.0,21.0,0.0,0.0,0.0,0.0,2413.0,100.0
37.29,0.0,26.0,0.0,0.0,0.0,0.0,2446.0,100.0
37.25,0.0,31.0,0.0,0.0,0.0,0.0,2473.0,100.0
37.27,0.0,31.0,0.0,0.0,0.0,0.0,2474.0,100.0
37.27,0.0,32.0,0.0,0.0,0.0,0.0,2476.0,100.0
37.21,0.0,45.0,0.0,0.0,0.0,0.0,2479.0,100.0
37.21,0.0,32.0,0.0,0.0,0.0,0.0,2480.0,100.0
37.19,0.0,32.0,0.0,0.0,0.0,0.0,2490.0,100.0
37.27,0.0,32.0,0.0,0.0,0.0,0.0,2488.0,100.0
37.19,0.0,39.0,0.0,0.0,0.0,0.0,2486.0,100.0
37.21,0.0,47.0,0.0,0.0,0.0,0.0,2498.0,100.0
37.27,0.0,38.0,0.0,0.0,0.0,0.0,2508.0,100.0
37.19,0.0,21.0,0.0,0.0,0.0,0.0,2522.0,100.0
37.27,0.0,30.0,0.0,0.0,0.0,0.0,2529.0,100.0
37.19,0.0,165.0,0.0,0.0,0.0,0.0,2536.0,100.0
37.25,0.0,32.0,0.0,0.0,0.0,0.0,2536.0,100.0
37.25,0.0,33.0,0.0,0.0,0.0,0.0,2544.0,100.0
37.21,0.0,25.0,0.0,0.0,0.0,0.0,2559.0,100.0
37.25,0.0,32.0,0.0,0.0,0.0,0.0,2555.0,100.0
37.19,0.0,35.0,0.0,0.0,0.0,0.0,2562.0,100.0
37.17,0.0,24.0,0.0,0.0,0.0,0.0,2591.0,100.0
37.17,0.0,16.0,0.0,0.0,0.0,0.0,2618.0,100.0
37.19,0.0,19.0,0.0,0.0,0.0,0.0,2617.0,100.0
37.21,0.0,25.0,0.0,0.0,0.0,0.0,2612.0,100.0
37.33,0.0,28.0,0.0,0.0,0.0,0.0,2629.0,100.0
37.21,0.0,18.0,0.0,0.0,0.0,0.0,2631.0,100.0
37.27,0.0,13.0,0.0,0.0,0.0,0.0,2623.0,100.0
37.29,0.0,14.0,0.0,0.0,0.0,0.0,2649.0,100.0
37.27,0.0,9.0,0.0,0.0,0.0,0.0,2649.0,100.0
37.29,0.0,8.0,0.0,0.0,0.0,0.0,2645.0,100.0
37.37,0.0,2.0,0.0,0.0,0.0,0.0,2652.0,100.0
37.33,0.0,0.0,0.0,0.0,0.0,0.0,2653.0,100.0
37.37,0.0,0.0,0.0,0.0,0.0,0.0,2706.0,100.0
37.29,0.0,0.0,0.0,0.0,0.0,0.0,2715.0,100.0
37.33,0.0,0.0,0.0,0.0,0.0,0.0,2719.0,100.0
37.19,0.0,0.0,0.0,0.0,0.0,0.0,2789.0,100.0
37.11,0.0,0.0,0.0,0.0,0.0,0.0,2882.0,100.0
37.17,0.0,0.0,0.0,0.0,0.0,0.0,2908.0,100.0
37.09,0.0,0.0,0.0,0.0,0.0,0.0,2937.0,100.0
37.17,0.0,0.0,0.0,0.0,0.0,0.0,2955.0,100.0
37.09,0.0,0.0,0.0,0.0,0.0,0.0,2871.0,100.0
37.05,0.0,0.0,0.0,0.0,0.0,0.0,2960.0,100.0
37.05,0.0,0.0,0.0,0.0,0.0,0.0,2974.0,100.0
37.03,0.0,0.0,0.0,0.0,0.0,0.0,2988.0,100.0
37.09,0.0,0.0,0.0,0.0,0.0,0.0,2984.0,100.0
37.09,0.0,0.0,0.0,0.0,0.0,0.0,2992.0,100.0
37.11,0.0,0.0,0.0,0.0,0.0,0.0,2979.0,100.0
37.11,0.0,0.0,0.0,0.0,0.0,0.0,2991.0,100.0
37.11,0.0,0.0,0.0,0.0,0.0,0.0,2996.0,100.0
37.09,0.0,0.0,0.0,0.0,0.0,0.0,2995.0,100.0
37.05,0.0,0.0,0.0,0.0,0.0,0.0,2995.0,100.0
37.09,0.0,0.0,0.0,0.0,0.0,0.0,3003.0,100.0
37.13,0.0,0.0,0.0,0.0,0.0,0.0,3009.0,100.0
37.03,0.0,0.0,0.0,0.0,0.0,0.0,3016.0,100.0
37.09,0.0,0.0,0.0,0.0,0.0,0.0,3004.0,100.0
37.03,0.0,0.0,0.0,0.0,0.0,0.0,3009.0,100.0
37.03,0.0,0.0,0.0,0.0,0.0,0.0,3015.0,100.0
37.01,0.0,0.0,0.0,0.0,0.0,0.0,3018.0,100.0
36.89,0.0,0.0,0.0,0.0,0.0,0.0,3005.0,100.0
36.93,0.0,0.0,0.0,0.0,0.0,0.0,3018.0,100.0
36.93,0.0,0.0,0.0,0.0,0.0,0.0,3014.0,100.0
37.01,0.0,0.0,0.0,0.0,0.0,0.0,3016.0,100.0
36.87,0.0,0.0,0.0,0.0,0.0,0.0,3019.0,100.0
36.89,0.0,0.0,0.0,0.0,0.0,0.0,3022.0,100.0
37.01,0.0,0.0,0.0,0.0,0.0,0.0,3011.0,100.0
37.05,0.0,0.0,0.0,0.0,0.0,0.0,3015.0,100.0
37.03,0.0,0.0,0.0,0.0,0.0,0.0,55.0,15.0
29.19,0.0,0.0,0.0,0.0,0.0,0.0,0.0,15.0
27.63,0.0,0.0,0.0,0.0,0.0,0.0,0.0,15.0
27.67,0.0,0.0,0.0,0.0,0.0,0.0,0.0,15.0
27.81,0.0,0.0,0.0,32.0,0.0,0.0,0.0,15.0
27.81,0.0,0.0,0.0,0.0,0.0,0.0,0.0,15.0
28.45,0.0,0.0,0.0,0.0,0.0,0.0,0.0,15.0
28.59,0.0,0.0,0.0,0.0,0.0,0.0,0.0,15.0
28.69,0.0,0.0,0.0,0.0,0.0,0.0,0.0,15.0
28.69,0.0,0.0,0.0,0.0,0.0,0.0,0.0,15.0
28.77,0.0,0.0,0.0,0.0,0.0,0.0,0.0,15.0
27.87,0.0,0.0,0.0,0.0,0.0,0.0,0.0,15.0
27.73,0.0,0.0,0.0,0.0,0.0,0.0,0.0,15.0
27.67,0.0,0.0,0.0,0.0,0.0,0.0,0.0,15.0
27.73,0.0,0.0,0.0,0.0,0.0,0.0,0.0,15.0
27.61,0.0,0.0,0.0,0.0,0.0,0.0,0.0,15.0
27.53,0.0,0.0,0.0,0.0,0.0,0.0,0.0,15.0
27.41,0.0,0.0,0.0,0.0,0.0,0.0,0.0,15.0
27.41,0.0,0.0,0.0,0.0,0.0,0.0,0.0,15.0
27.37,0.0,0.0,0.0,0.0,0.0,0.0,0.0,15.0
27.29,0.0,0.0,0.0,0.0,0.0,0.0,0.0,15.0
27.29,0.0,0.0,0.0,0.0,0.0,0.0,0.0,15.0
27.31,0.0,0.0,0.0,0.0,0.0,0.0,0.0,15.0
27.43,0.0,0.0,0.0,0.0,0.0,0.0,0.0,15.0
27.37,0.0,0.0,0.0,0.0,0.0,0.0,0.0,15.0
27.55,0.0,0.0,0.0,0.0,0.0,0.0,0.0,15.0
27.53,0.0,0.0,0.0,0.0,0.0,0.0,0.0,15.0
27.73,0.0,0.0,0.0,0.0,0.0,0.0,0.0,15.0
27.69,0.0,0.0,0.0,0.0,0.0,0.0,0.0,15.0
27.61,0.0,0.0,0.0,0.0,0.0,0.0,0.0,15.0
27.63,0.0,0.0,0.0,0.0,0.0,0.0,0.0,15.0
27.61,0.0,0.0,0.0,0.0,0.0,0.0,0.0,15.0
27.59,0.0,0.0,0.0,0.0,0.0,0.0,0.0,15.0
27.63,0.0,0.0,0.0,0.0,0.0,0.0,0.0,15.0
27.67,0.0,0.0,0.0,0.0,0.0,0.0,0.0,15.0
27.61,0.0,0.0,0.0,0.0,0.0,0.0,0.0,15.0
27.59,0.0,0.0,0.0,0.0,0.0,0.0,0.0,15.0
27.67,0.0,0.0,0.0,0.0,0.0,0.0,0.0,15.0
27.69,0.0,0.0,0.0,0.0,0.0,0.0,0.0,15.0
27.61,0.0,0.0,0.0,0.0,0.0,0.0,0.0,15.0
27.61,0.0,0.0,0.0,0.0,0.0,0.0,0.0,15.0
27.67,0.0,0.0,0.0,0.0,0.0,0.0,0.0,15.0
27.37,0.0,0.0,0.0,0.0,0.0,0.0,0.0,15.0
27.37,0.0,0.0,0.0,0.0,0.0,0.0,0.0,15.0
27.41,0.0,0.0,0.0,0.0,0.0,0.0,0.0,15.0
27.37,0.0,0.0,0.0,0.0,0.0,0.0,0.0,15.0
27.37,0.0,0.0,0.0,0.0,0.0,0.0,0.0,15.0
27.37,0.0,0.0,0.0,0.0,0.0,0.0,0.0,15.0
27.25,0.0,0.0,0.0,0.0,0.0,0.0,0.0,15.0
27.37,0.0,0.0,0.0,0.0,0.0,0.0,0.0,15.0
27.37,0.0,0.0,0.0,0.0,0.0,0.0,0.0,19.0
27.41,432.0,0.0,0.0,0.0,0.0,0.0,0.0,25.0
27.29,0.0,0.0,0.0,0.0,0.0,0.0,0.0,25.0
27.37,0.0,0.0,0.0,0.0,0.0,0.0,0.0,30.0
27.35,0.0,0.0,0.0,0.0,0.0,0.0,0.0,32.0
27.37,0.0,0.0,0.0,0.0,0.0,0.0,0.0,32.0
27.31,0.0,0.0,0.0,0.0,0.0,0.0,0.0,37.0
27.37,0.0,0.0,0.0,0.0,0.0,0.0,0.0,46.0
27.37,0.0,0.0,0.0,0.0,0.0,0.0,0.0,55.0
27.37,0.0,0.0,0.0,0.0,0.0,0.0,0.0,65.0
27.25,0.0,0.0,0.0,0.0,0.0,0.0,0.0,75.0
27.17,0.0,47.0,0.0,0.0,0.0,0.0,1705.0,84.0
27.23,0.0,111.0,0.0,0.0,0.0,0.0,2246.0,94.0
27.17,0.0,161.0,0.0,0.0,0.0,0.0,2290.0,100.0
27.25,0.0,172.0,0.0,0.0,0.0,0.0,2348.0,100.0
27.23,0.0,112.0,0.0,0.0,0.0,0.0,2198.0,100.0
27.17,0.0,112.0,0.0,0.0,0.0,0.0,2158.0,100.0
27.15,0.0,112.0,0.0,0.0,0.0,0.0,2158.0,100.0
27.21,0.0,124.0,0.0,0.0,0.0,0.0,2174.0,100.0
27.15,0.0,117.0,0.0,0.0,0.0,0.0,2171.0,100.0
27.29,0.0,128.0,0.0,0.0,0.0,0.0,2181.0,100.0
27.23,0.0,125.0,0.0,0.0,0.0,0.0,2160.0,100.0
27.25,0.0,129.0,0.0,0.0,0.0,0.0,2157.0,100.0
27.21,0.0,122.0,0.0,0.0,0.0,0.0,2163.0,100.0
27.25,0.0,129.0,0.0,0.0,0.0,0.0,2183.0,100.0
27.35,0.0,176.0,0.0,0.0,0.0,0.0,2179.0,100.0
27.37,0.0,146.0,0.0,0.0,0.0,0.0,2177.0,100.0
27.37,0.0,144.0,0.0,0.0,0.0,0.0,2189.0,100.0
27.41,0.0,146.0,0.0,0.0,0.0,0.0,2203.0,100.0
27.37,0.0,144.0,0.0,0.0,0.0,0.0,2200.0,100.0
27.35,0.0,150.0,0.0,0.0,0.0,0.0,2206.0,100.0
27.41,0.0,144.0,0.0,0.0,0.0,0.0,2205.0,100.0
27.37,0.0,144.0,0.0,0.0,0.0,0.0,2204.0,100.0
27.23,0.0,156.0,0.0,0.0,0.0,0.0,2202.0,100.0
27.23,0.0,157.0,0.0,0.0,0.0,0.0,2209.0,100.0
27.23,0.0,158.0,0.0,0.0,0.0,0.0,2211.0,100.0
27.35,0.0,159.0,0.0,0.0,0.0,0.0,2212.0,100.0
27.29,0.0,158.0,0.0,0.0,0.0,0.0,2218.0,100.0
27.23,0.0,151.0,0.0,0.0,0.0,0.0,2210.0,100.0
27.25,0.0,150.0,0.0,0.0,0.0,0.0,2204.0,100.0
27.25,0.0,160.0,0.0,0.0,0.0,0.0,2205.0,100.0
27.29,0.0,166.0,0.0,0.0,0.0,0.0,2205.0,100.0
27.17,0.0,158.0,0.0,0.0,0.0,0.0,2210.0,100.0
27.25,0.0,165.0,0.0,0.0,0.0,0.0,2213.0,100.0
27.23,0.0,166.0,0.0,0.0,0.0,0.0,2221.0,100.0
27.23,0.0,167.0,0.0,0.0,0.0,0.0,2221.0,100.0
27.21,0.0,160.0,0.0,0.0,0.0,0.0,2225.0,100.0
27.25,0.0,165.0,0.0,0.0,0.0,0.0,2218.0,100.0
27.17,0.0,167.0,0.0,0.0,0.0,0.0,2229.0,100.0
27.25,0.0,173.0,0.0,0.0,0.0,0.0,2225.0,100.0
27.25,0.0,164.0,0.0,0.0,0.0,0.0,2226.0,100.0
27.29,0.0,163.0,0.0,0.0,0.0,0.0,2231.0,100.0
27.29,0.0,69.0,0.0,0.0,0.0,0.0,2228.0,100.0
27.25,0.0,167.0,0.0,0.0,0.0,0.0,2226.0,100.0
27.17,0.0,171.0,0.0,0.0,0.0,0.0,2232.0,100.0
27.23,0.0,174.0,0.0,0.0,0.0,0.0,2224.0,100.0
27.25,0.0,167.0,0.0,0.0,0.0,0.0,2220.0,100.0
27.17,0.0,174.0,0.0,0.0,0.0,0.0,2232.0,100.0
27.17,0.0,165.0,0.0,0.0,0.0,0.0,2229.0,100.0
27.17,0.0,171.0,0.0,0.0,0.0,0.0,2233.0,100.0
27.15,0.0,172.0,0.0,0.0,0.0,0.0,2228.0,100.0
27.17,0.0,160.0,0.0,0.0,0.0,0.0,2237.0,100.0
27.17,0.0,173.0,0.0,0.0,0.0,0.0,2246.0,100.0
27.21,0.0,176.0,0.0,0.0,0.0,0.0,2236.0,100.0
27.17,0.0,157.0,0.0,0.0,0.0,0.0,2241.0,100.0
27.25,0.0,169.0,0.0,0.0,0.0,0.0,2252.0,100.0
27.15,0.0,162.0,0.0,0.0,0.0,0.0,2243.0,100.0
27.23,0.0,170.0,0.0,0.0,0.0,0.0,2245.0,100.0
27.23,0.0,165.0,0.0,0.0,0.0,0.0,2252.0,100.0
27.23,0.0,166.0,0.0,0.0,0.0,0.0,2251.0,100.0
27.23,0.0,174.0,0.0,0.0,0.0,0.0,2256.0,100.0
27.15,0.0,174.0,0.0,0.0,0.0,0.0,2252.0,100.0
27.23,0.0,173.0,0.0,0.0,0.0,160.0,2252.0,100.0
27.25,0.0,182.0,0.0,0.0,0.0,0.0,2253.0,100.0
27.25,0.0,172.0,0.0,0.0,0.0,0.0,2254.0,100.0
27.23,0.0,175.0,0.0,0.0,0.0,0.0,2253.0,100.0
27.17,0.0,165.0,0.0,0.0,0.0,0.0,2259.0,100.0
27.25,0.0,176.0,0.0,0.0,0.0,0.0,2265.0,100.0
27.23,0.0,176.0,0.0,0.0,0.0,0.0,2261.0,100.0
27.17,0.0,176.0,0.0,0.0,0.0,0.0,2255.0,100.0
27.23,0.0,174.0,0.0,0.0,0.0,0.0,2260.0,100.0
27.23,0.0,176.0,0.0,0.0,0.0,0.0,2260.0,100.0
27.25,0.0,196.0,0.0,0.0,0.0,0.0,2266.0,100.0
27.23,0.0,176.0,0.0,0.0,0.0,0.0,2266.0,100.0
27.15,0.0,176.0,0.0,0.0,0.0,0.0,2267.0,100.0
27.23,0.0,166.0,0.0,0.0,0.0,0.0,2264.0,100.0
27.23,0.0,174.0,0.0,0.0,0.0,0.0,2261.0,100.0
27.17,0.0,162.0,0.0,0.0,0.0,0.0,2259.0,100.0
27.17,0.0,176.0,0.0,0.0,0.0,0.0,2258.0,100.0
27.17,0.0,174.0,0.0,0.0,0.0,0.0,2273.0,100.0
27.17,0.0,163.0,0.0,0.0,0.0,0.0,2263.0,100.0
27.17,0.0,172.0,0.0,0.0,0.0,0.0,2270.0,100.0
27.17,0.0,176.0,0.0,0.0,0.0,0.0,2287.0,100.0
27.15,0.0,178.0,0.0,0.0,0.0,0.0,2289.0,100.0
27.15,0.0,173.0,0.0,0.0,0.0,0.0,2286.0,100.0
27.11,0.0,176.0,0.0,0.0,0.0,0.0,2286.0,100.0
27.15,0.0,181.0,0.0,0.0,0.0,0.0,2284.0,100.0
27.15,0.0,0.0,0.0,0.0,0.0,0.0,1457.0,15.0
27.37,0.0,0.0,0.0,0.0,0.0,0.0,0.0,15.0
27.17,0.0,0.0,0.0,0.0,0.0,0.0,0.0,15.0
27.15,0.0,0.0,0.0,0.0,0.0,0.0,0.0,16.0
27.17,0.0,0.0,0.0,0.0,0.0,0.0,0.0,19.0
27.29,0.0,0.0,0.0,0.0,0.0,0.0,0.0,19.0
27.31,0.0,0.0,0.0,0.0,0.0,0.0,0.0,19.0
27.25,0.0,0.0,0.0,0.0,0.0,0.0,0.0,19.0
27.25,0.0,0.0,0.0,0.0,0.0,0.0,0.0,19.0
27.53,0.0,0.0,0.0,0.0,0.0,0.0,0.0,19.0
28.33,0.0,0.0,0.0,0.0,0.0,0.0,0.0,19.0
28.31,0.0,0.0,0.0,0.0,0.0,0.0,0.0,19.0
28.43,0.0,0.0,0.0,0.0,0.0,0.0,0.0,19.0
28.39,0.0,0.0,0.0,0.0,0.0,0.0,0.0,19.0
28.23,0.0,0.0,0.0,0.0,0.0,0.0,0.0,19.0
27.53,0.0,0.0,0.0,0.0,0.0,0.0,0.0,19.0
27.15,0.0,0.0,0.0,0.0,0.0,0.0,0.0,19.0
27.11,0.0,0.0,0.0,0.0,0.0,0.0,0.0,19.0
27.11,0.0,0.0,0.0,0.0,0.0,0.0,0.0,19.0
27.15,0.0,0.0,0.0,0.0,0.0,0.0,0.0,19.0
