tempMLX,FSR_A1,FSR_A2,FSR_A3,FSR_B1,FSR_B2,FSR_B3,FSR_C,porcAper
0.0,0.0,0.0,0.0,0.0,0.0,0.0,0.0,15.0
0.0,0.0,0.0,0.0,0.0,0.0,0.0,0.0,15.0
0.0,0.0,0.0,0.0,0.0,0.0,0.0,0.0,15.0
26.67,0.0,0.0,0.0,0.0,0.0,0.0,0.0,15.0
26.65,0.0,0.0,0.0,0.0,0.0,0.0,0.0,15.0
26.61,0.0,0.0,0.0,0.0,0.0,0.0,0.0,15.0
26.73,0.0,0.0,0.0,0.0,0.0,0.0,0.0,15.0
26.61,0.0,0.0,0.0,0.0,0.0,0.0,0.0,15.0
26.67,0.0,0.0,0.0,0.0,0.0,0.0,0.0,15.0
26.67,0.0,0.0,0.0,0.0,0.0,0.0,0.0,15.0
26.65,0.0,0.0,0.0,0.0,0.0,0.0,0.0,15.0
26.73,0.0,0.0,0.0,0.0,0.0,0.0,0.0,15.0
26.71,0.0,0.0,0.0,0.0,0.0,0.0,0.0,15.0
26.71,0.0,0.0,0.0,0.0,0.0,0.0,0.0,15.0
26.71,0.0,0.0,0.0,0.0,0.0,0.0,0.0,15.0
26.77,0.0,0.0,0.0,0.0,0.0,0.0,0.0,15.0
26.61,0.0,0.0,0.0,0.0,0.0,0.0,0.0,15.0
26.61,0.0,0.0,0.0,0.0,0.0,0.0,0.0,15.0
26.71,0.0,0.0,0.0,0.0,0.0,0.0,0.0,15.0
26.65,0.0,0.0,0.0,0.0,0.0,0.0,0.0,15.0
26.73,0.0,0.0,0.0,0.0,0.0,0.0,0.0,15.0
26.73,0.0,0.0,0.0,0.0,0.0,0.0,0.0,15.0
26.71,0.0,0.0,0.0,0.0,0.0,0.0,0.0,15.0
26.71,0.0,0.0,0.0,0.0,0.0,0.0,0.0,15.0
26.65,0.0,0.0,0.0,0.0,0.0,0.0,0.0,15.0
26.71,0.0,0.0,0.0,0.0,0.0,0.0,0.0,15.0
26.73,0.0,0.0,0.0,0.0,0.0,0.0,0.0,15.0
26.61,0.0,0.0,0.0,0.0,0.0,0.0,0.0,15.0
26.67,0.0,0.0,0.0,0.0,0.0,0.0,0.0,15.0
26.65,0.0,0.0,0.0,0.0,0.0,0.0,0.0,15.0
26.73,0.0,0.0,0.0,0.0,0.0,0.0,0.0,15.0
26.73,0.0,0.0,0.0,0.0,0.0,0.0,0.0,15.0
26.73,0.0,0.0,0.0,0.0,0.0,0.0,0.0,15.0
26.71,0.0,0.0,0.0,0.0,0.0,0.0,0.0,15.0
26.71,0.0,0.0,0.0,0.0,0.0,0.0,0.0,15.0
26.65,0.0,0.0,0.0,0.0,0.0,0.0,0.0,15.0
26.71,0.0,0.0,0.0,0.0,0.0,0.0,0.0,15.0
26.67,0.0,0.0,0.0,0.0,0.0,0.0,0.0,15.0
26.61,0.0,0.0,0.0,0.0,0.0,0.0,0.0,15.0
26.59,0.0,0.0,0.0,0.0,0.0,0.0,0.0,15.0
26.59,0.0,0.0,0.0,0.0,0.0,0.0,0.0,15.0
26.59,0.0,0.0,0.0,0.0,0.0,0.0,0.0,15.0
26.59,0.0,0.0,0.0,0.0,0.0,0.0,0.0,15.0
26.65,0.0,0.0,0.0,0.0,0.0,0.0,0.0,15.0
26.65,0.0,0.0,0.0,0.0,0.0,0.0,0.0,15.0
26.65,0.0,0.0,0.0,0.0,0.0,0.0,0.0,15.0
26.67,0.0,0.0,0.0,0.0,0.0,0.0,0.0,15.0
26.61,0.0,0.0,0.0,0.0,0.0,0.0,0.0,15.0
26.55,0.0,0.0,0.0,0.0,0.0,0.0,0.0,15.0
26.59,0.0,0.0,0.0,0.0,0.0,0.0,0.0,15.0
26.61,0.0,0.0,0.0,0.0,0.0,0.0,0.0,15.0
26.53,0.0,0.0,0.0,0.0,0.0,0.0,0.0,15.0
26.65,0.0,0.0,0.0,0.0,0.0,0.0,0.0,15.0
26.67,0.0,0.0,0.0,0.0,0.0,0.0,0.0,15.0
26.67,0.0,0.0,0.0,0.0,0.0,0.0,0.0,15.0
26.71,0.0,0.0,0.0,0.0,0.0,0.0,0.0,15.0
26.71,0.0,0.0,0.0,0.0,0.0,0.0,0.0,15.0
26.71,0.0,0.0,0.0,0.0,0.0,0.0,0.0,15.0
26.73,0.0,0.0,0.0,0.0,0.0,0.0,0.0,15.0
26.67,0.0,0.0,0.0,0.0,0.0,0.0,0.0,15.0
26.73,0.0,0.0,0.0,0.0,0.0,0.0,0.0,15.0
26.67,0.0,0.0,0.0,0.0,0.0,0.0,0.0,15.0
26.65,0.0,0.0,0.0,0.0,0.0,0.0,0.0,15.0
26.73,0.0,0.0,0.0,0.0,0.0,0.0,0.0,15.0
26.73,0.0,0.0,0.0,0.0,0.0,0.0,0.0,15.0
26.73,0.0,0.0,0.0,0.0,0.0,0.0,0.0,15.0
26.67,0.0,0.0,0.0,0.0,0.0,0.0,0.0,15.0
26.61,0.0,0.0,0.0,0.0,0.0,0.0,0.0,15.0
26.61,0.0,0.0,0.0,0.0,0.0,0.0,0.0,15.0
26.67,0.0,0.0,0.0,0.0,0.0,0.0,0.0,15.0
26.67,0.0,0.0,0.0,0.0,0.0,0.0,0.0,15.0
26.65,0.0,0.0,0.0,0.0,0.0,0.0,0.0,15.0
26.71,0.0,0.0,0.0,0.0,0.0,0.0,0.0,15.0
26.65,0.0,0.0,0.0,0.0,0.0,0.0,0.0,15.0
26.67,0.0,0.0,0.0,0.0,0.0,0.0,0.0,15.0
26.71,0.0,0.0,0.0,0.0,0.0,0.0,0.0,15.0
26.67,0.0,0.0,0.0,0.0,0.0,0.0,0.0,15.0
26.65,0.0,0.0,0.0,0.0,0.0,0.0,0.0,15.0
26.67,0.0,0.0,0.0,0.0,0.0,0.0,0.0,15.0
26.65,0.0,0.0,0.0,0.0,0.0,0.0,0.0,15.0
26.67,0.0,0.0,0.0,0.0,0.0,0.0,0.0,15.0
26.65,0.0,0.0,0.0,0.0,0.0,0.0,0.0,15.0
26.65,0.0,0.0,0.0,0.0,0.0,0.0,0.0,15.0
26.67,0.0,0.0,0.0,0.0,0.0,0.0,0.0,15.0
26.65,0.0,0.0,0.0,0.0,0.0,0.0,0.0,15.0
26.71,0.0,0.0,0.0,0.0,0.0,0.0,0.0,15.0
26.67,0.0,0.0,0.0,0.0,0.0,0.0,0.0,15.0
26.65,0.0,0.0,0.0,0.0,0.0,0.0,3.0,15.0
26.65,0.0,0.0,0.0,0.0,0.0,0.0,0.0,15.0
26.65,0.0,0.0,0.0,0.0,0.0,0.0,0.0,15.0
26.65,0.0,0.0,0.0,0.0,0.0,0.0,0.0,15.0
26.61,0.0,0.0,0.0,0.0,0.0,0.0,0.0,15.0
26.67,0.0,0.0,0.0,0.0,0.0,0.0,0.0,15.0
26.67,0.0,0.0,0.0,0.0,0.0,0.0,0.0,15.0
26.59,0.0,0.0,0.0,0.0,0.0,0.0,0.0,15.0
26.61,0.0,0.0,0.0,0.0,0.0,0.0,0.0,15.0
26.55,0.0,0.0,0.0,0.0,0.0,0.0,0.0,15.0
26.61,0.0,0.0,0.0,0.0,0.0,0.0,0.0,15.0
26.65,0.0,0.0,0.0,0.0,0.0,0.0,0.0,15.0
26.61,0.0,0.0,0.0,0.0,0.0,0.0,0.0,15.0
26.65,0.0,0.0,0.0,0.0,0.0,0.0,0.0,15.0
26.59,0.0,0.0,0.0,0.0,0.0,0.0,0.0,15.0
26.55,0.0,0.0,0.0,0.0,0.0,0.0,0.0,15.0
26.65,0.0,0.0,0.0,0.0,0.0,0.0,0.0,15.0
26.53,0.0,0.0,0.0,0.0,0.0,0.0,0.0,15.0
26.53,0.0,0.0,0.0,0.0,0.0,0.0,0.0,15.0
26.53,0.0,0.0,0.0,0.0,0.0,0.0,0.0,15.0
26.55,0.0,0.0,0.0,0.0,0.0,0.0,0.0,15.0
26.61,0.0,0.0,0.0,0.0,0.0,0.0,0.0,15.0
26.65,0.0,0.0,0.0,0.0,0.0,0.0,0.0,15.0
26.55,0.0,0.0,0.0,0.0,0.0,0.0,0.0,15.0
26.49,0.0,0.0,0.0,0.0,208.0,0.0,0.0,15.0
26.47,0.0,0.0,0.0,0.0,0.0,0.0,0.0,15.0
26.53,0.0,0.0,0.0,0.0,0.0,0.0,0.0,15.0
26.55,0.0,0.0,0.0,0.0,0.0,0.0,0.0,15.0
26.55,0.0,0.0,0.0,0.0,0.0,0.0,0.0,15.0
26.47,0.0,0.0,0.0,0.0,0.0,0.0,0.0,15.0
26.49,0.0,0.0,0.0,0.0,0.0,0.0,0.0,15.0
26.53,0.0,0.0,0.0,0.0,0.0,0.0,0.0,15.0
26.53,0.0,0.0,0.0,0.0,0.0,0.0,0.0,15.0
26.49,0.0,0.0,0.0,0.0,0.0,0.0,0.0,15.0
26.53,0.0,0.0,0.0,0.0,0.0,0.0,0.0,15.0
26.53,0.0,0.0,0.0,0.0,0.0,0.0,1.0,15.0
26.53,0.0,0.0,0.0,0.0,0.0,0.0,0.0,15.0
26.53,0.0,0.0,0.0,0.0,0.0,0.0,0.0,15.0
26.55,0.0,0.0,0.0,0.0,0.0,0.0,0.0,15.0
26.59,0.0,0.0,0.0,0.0,0.0,0.0,0.0,15.0
26.55,0.0,0.0,0.0,0.0,0.0,0.0,0.0,15.0
26.53,0.0,0.0,0.0,0.0,0.0,0.0,0.0,15.0
26.55,0.0,0.0,0.0,0.0,0.0,0.0,0.0,15.0
26.49,0.0,0.0,0.0,0.0,0.0,0.0,0.0,15.0
26.53,0.0,0.0,0.0,0.0,0.0,0.0,0.0,15.0
26.53,0.0,0.0,0.0,0.0,0.0,0.0,0.0,15.0
26.53,0.0,0.0,0.0,0.0,0.0,0.0,0.0,15.0
26.55,0.0,0.0,0.0,0.0,0.0,0.0,0.0,15.0
26.55,0.0,0.0,0.0,0.0,0.0,0.0,0.0,15.0
26.55,0.0,0.0,0.0,0.0,0.0,0.0,0.0,18.0
26.55,0.0,0.0,0.0,0.0,0.0,0.0,0.0,18.0
26.53,0.0,0.0,0.0,0.0,0.0,0.0,0.0,18.0
26.67,0.0,0.0,0.0,0.0,0.0,0.0,0.0,18.0
26.53,0.0,0.0,0.0,0.0,0.0,0.0,0.0,18.0
26.59,0.0,0.0,0.0,0.0,0.0,0.0,0.0,18.0
26.87,0.0,256.0,0.0,0.0,0.0,0.0,0.0,18.0
27.11,0.0,0.0,0.0,0.0,0.0,0.0,0.0,18.0
27.47,0.0,0.0,0.0,0.0,0.0,0.0,0.0,18.0
27.31,0.0,0.0,0.0,0.0,0.0,0.0,0.0,18.0
27.21,0.0,0.0,0.0,0.0,0.0,0.0,0.0,18.0
27.11,0.0,0.0,0.0,0.0,0.0,0.0,0.0,18.0
27.31,0.0,0.0,0.0,0.0,0.0,0.0,0.0,18.0
27.43,0.0,0.0,0.0,0.0,0.0,0.0,0.0,18.0
27.53,0.0,0.0,0.0,0.0,0.0,0.0,0.0,20.0
27.47,0.0,0.0,0.0,0.0,0.0,0.0,0.0,29.0
27.41,0.0,0.0,0.0,0.0,0.0,0.0,0.0,38.0
27.21,0.0,0.0,0.0,0.0,0.0,0.0,0.0,48.0
27.25,0.0,0.0,0.0,0.0,0.0,0.0,0.0,58.0
27.25,0.0,0.0,0.0,0.0,0.0,0.0,0.0,67.0
27.21,0.0,0.0,0.0,0.0,0.0,0.0,0.0,76.0
27.15,0.0,0.0,0.0,0.0,0.0,0.0,0.0,86.0
27.11,0.0,0.0,0.0,0.0,0.0,0.0,0.0,97.0
27.09,0.0,0.0,0.0,0.0,0.0,0.0,0.0,100.0
27.11,0.0,0.0,0.0,0.0,0.0,0.0,0.0,100.0
27.05,0.0,0.0,0.0,0.0,0.0,0.0,0.0,100.0
27.11,0.0,0.0,0.0,0.0,0.0,0.0,0.0,100.0
27.09,0.0,0.0,0.0,0.0,0.0,0.0,0.0,100.0
27.09,0.0,0.0,0.0,0.0,0.0,0.0,0.0,100.0
27.09,0.0,0.0,0.0,0.0,0.0,0.0,0.0,100.0
27.09,0.0,0.0,0.0,0.0,0.0,0.0,0.0,100.0
27.03,0.0,0.0,0.0,0.0,0.0,0.0,0.0,100.0
27.05,0.0,0.0,0.0,0.0,0.0,0.0,0.0,100.0
26.99,0.0,0.0,0.0,0.0,0.0,0.0,0.0,100.0
27.11,0.0,0.0,0.0,0.0,0.0,0.0,0.0,100.0
27.11,0.0,0.0,0.0,0.0,0.0,0.0,0.0,100.0
27.15,0.0,0.0,0.0,0.0,0.0,0.0,0.0,100.0
27.09,0.0,0.0,0.0,0.0,0.0,0.0,0.0,100.0
27.09,0.0,0.0,0.0,0.0,0.0,0.0,0.0,100.0
27.09,0.0,0.0,0.0,0.0,0.0,0.0,0.0,100.0
27.09,0.0,0.0,0.0,0.0,0.0,0.0,0.0,100.0
27.11,0.0,0.0,0.0,0.0,0.0,0.0,0.0,100.0
26.99,0.0,0.0,0.0,0.0,0.0,0.0,0.0,100.0
27.09,0.0,0.0,0.0,0.0,0.0,0.0,0.0,100.0
26.97,2.0,0.0,0.0,0.0,0.0,0.0,0.0,100.0
26.93,0.0,0.0,0.0,0.0,0.0,0.0,0.0,100.0
26.85,0.0,0.0,0.0,0.0,0.0,0.0,0.0,100.0
26.93,0.0,0.0,0.0,0.0,0.0,0.0,0.0,100.0
26.87,0.0,0.0,0.0,0.0,0.0,0.0,0.0,100.0
26.87,0.0,0.0,0.0,0.0,0.0,0.0,0.0,100.0
26.91,0.0,0.0,0.0,0.0,0.0,0.0,0.0,100.0
26.93,0.0,0.0,0.0,0.0,0.0,0.0,0.0,100.0
26.91,0.0,0.0,0.0,0.0,0.0,0.0,0.0,100.0
26.87,0.0,0.0,0.0,0.0,0.0,0.0,0.0,100.0
26.93,0.0,0.0,0.0,0.0,0.0,0.0,0.0,100.0
26.91,0.0,0.0,0.0,0.0,0.0,0.0,0.0,100.0
26.87,0.0,0.0,0.0,0.0,0.0,0.0,0.0,100.0
26.91,0.0,0.0,0.0,0.0,0.0,0.0,0.0,100.0
26.91,0.0,0.0,0.0,0.0,0.0,0.0,0.0,100.0
26.87,0.0,0.0,0.0,0.0,0.0,0.0,0.0,100.0
26.87,0.0,0.0,0.0,0.0,0.0,0.0,0.0,100.0
26.91,0.0,0.0,0.0,0.0,0.0,0.0,0.0,100.0
26.85,0.0,0.0,0.0,0.0,0.0,0.0,0.0,100.0
26.91,0.0,0.0,0.0,0.0,0.0,0.0,0.0,100.0
26.91,0.0,0.0,0.0,0.0,0.0,0.0,0.0,100.0
26.91,0.0,0.0,0.0,0.0,0.0,0.0,0.0,100.0
26.87,0.0,0.0,0.0,0.0,0.0,0.0,0.0,100.0
26.87,0.0,0.0,0.0,0.0,0.0,0.0,0.0,100.0
26.91,0.0,0.0,0.0,0.0,0.0,0.0,0.0,100.0
26.97,0.0,0.0,0.0,0.0,0.0,0.0,0.0,100.0
26.87,0.0,0.0,0.0,0.0,0.0,0.0,0.0,100.0
26.85,0.0,0.0,0.0,0.0,0.0,0.0,0.0,100.0
26.85,0.0,0.0,0.0,0.0,0.0,0.0,0.0,100.0
26.87,0.0,0.0,0.0,0.0,0.0,0.0,0.0,100.0
26.91,0.0,0.0,0.0,0.0,0.0,0.0,0.0,100.0
26.83,0.0,0.0,0.0,0.0,0.0,0.0,0.0,100.0
26.83,0.0,0.0,0.0,0.0,0.0,0.0,0.0,100.0
26.77,0.0,0.0,0.0,0.0,0.0,0.0,0.0,100.0
26.83,0.0,0.0,0.0,0.0,0.0,0.0,0.0,100.0
26.79,0.0,0.0,0.0,0.0,0.0,0.0,0.0,100.0
26.79,0.0,0.0,0.0,0.0,0.0,0.0,0.0,100.0
26.77,0.0,0.0,0.0,0.0,0.0,0.0,0.0,100.0
26.79,0.0,0.0,0.0,0.0,0.0,0.0,0.0,100.0
26.83,0.0,0.0,0.0,0.0,0.0,0.0,0.0,100.0
26.77,0.0,0.0,0.0,0.0,0.0,0.0,0.0,100.0
26.77,0.0,0.0,0.0,0.0,0.0,0.0,0.0,100.0
26.79,0.0,0.0,0.0,0.0,0.0,0.0,0.0,100.0
26.71,0.0,0.0,0.0,0.0,0.0,0.0,0.0,100.0
26.79,0.0,0.0,0.0,0.0,0.0,0.0,0.0,100.0
26.73,0.0,0.0,0.0,0.0,0.0,0.0,0.0,100.0
26.77,0.0,0.0,0.0,0.0,0.0,0.0,0.0,100.0
26.77,0.0,0.0,0.0,0.0,0.0,0.0,0.0,100.0
26.77,0.0,0.0,0.0,0.0,0.0,0.0,0.0,100.0
26.73,0.0,0.0,0.0,0.0,0.0,0.0,0.0,100.0
26.67,0.0,0.0,0.0,0.0,0.0,0.0,0.0,100.0
26.73,0.0,0.0,0.0,0.0,0.0,0.0,0.0,100.0
26.71,0.0,0.0,0.0,0.0,0.0,0.0,0.0,100.0
26.67,0.0,0.0,0.0,0.0,0.0,0.0,0.0,100.0
26.71,0.0,0.0,0.0,0.0,0.0,0.0,0.0,100.0
26.65,0.0,0.0,0.0,0.0,0.0,0.0,0.0,100.0
26.67,0.0,0.0,0.0,0.0,0.0,0.0,0.0,100.0
26.65,0.0,0.0,0.0,0.0,0.0,0.0,0.0,100.0
26.71,0.0,0.0,0.0,0.0,0.0,0.0,0.0,100.0
26.67,0.0,0.0,0.0,0.0,0.0,0.0,0.0,15.0
26.67,0.0,0.0,0.0,0.0,0.0,0.0,0.0,15.0
26.71,0.0,0.0,0.0,0.0,0.0,0.0,0.0,22.0
26.43,0.0,0.0,0.0,0.0,0.0,0.0,0.0,22.0
26.53,0.0,0.0,0.0,0.0,0.0,0.0,0.0,22.0
26.53,0.0,0.0,0.0,0.0,0.0,0.0,0.0,22.0
26.91,0.0,0.0,0.0,0.0,0.0,0.0,0.0,22.0
27.41,0.0,0.0,0.0,0.0,0.0,0.0,0.0,22.0
27.29,0.0,0.0,0.0,0.0,0.0,0.0,0.0,22.0
26.99,0.0,0.0,0.0,0.0,0.0,0.0,0.0,22.0
26.67,0.0,0.0,0.0,0.0,0.0,0.0,0.0,22.0
26.73,0.0,0.0,0.0,0.0,0.0,0.0,0.0,22.0
26.87,0.0,0.0,0.0,0.0,0.0,0.0,0.0,22.0
26.83,0.0,0.0,0.0,0.0,0.0,0.0,0.0,22.0
26.79,0.0,0.0,0.0,0.0,0.0,0.0,0.0,22.0
26.73,0.0,0.0,0.0,0.0,0.0,0.0,0.0,22.0
26.73,0.0,0.0,0.0,0.0,0.0,0.0,0.0,22.0
26.65,0.0,0.0,0.0,0.0,0.0,0.0,0.0,22.0
26.61,0.0,0.0,0.0,0.0,0.0,0.0,0.0,22.0
26.55,0.0,0.0,0.0,0.0,0.0,0.0,0.0,22.0
26.65,0.0,0.0,0.0,0.0,0.0,0.0,0.0,22.0
26.61,0.0,0.0,0.0,0.0,0.0,0.0,0.0,22.0
26.73,0.0,0.0,0.0,0.0,0.0,0.0,0.0,22.0
26.73,0.0,0.0,0.0,0.0,0.0,0.0,0.0,22.0
26.71,0.0,0.0,0.0,0.0,0.0,0.0,0.0,22.0
26.73,0.0,0.0,0.0,0.0,0.0,0.0,0.0,22.0
26.77,0.0,0.0,0.0,0.0,0.0,0.0,0.0,22.0
26.83,0.0,0.0,0.0,0.0,0.0,0.0,0.0,22.0
26.83,0.0,0.0,0.0,0.0,0.0,0.0,0.0,22.0
26.83,0.0,0.0,0.0,0.0,0.0,0.0,0.0,22.0
26.77,0.0,0.0,0.0,0.0,0.0,0.0,0.0,22.0
26.85,0.0,0.0,0.0,0.0,0.0,0.0,0.0,22.0
26.83,0.0,0.0,0.0,0.0,0.0,0.0,0.0,22.0
26.79,0.0,0.0,0.0,0.0,0.0,0.0,0.0,22.0
26.77,0.0,0.0,0.0,0.0,0.0,0.0,0.0,22.0
26.71,0.0,0.0,0.0,0.0,0.0,0.0,0.0,22.0
26.65,0.0,0.0,0.0,0.0,0.0,0.0,0.0,22.0
26.71,0.0,0.0,0.0,0.0,0.0,0.0,0.0,22.0
26.65,0.0,0.0,0.0,0.0,0.0,0.0,0.0,22.0
26.67,0.0,0.0,0.0,0.0,0.0,0.0,0.0,22.0
26.59,0.0,0.0,0.0,0.0,0.0,0.0,0.0,22.0
26.47,0.0,0.0,0.0,0.0,0.0,0.0,0.0,15.0
26.47,0.0,0.0,0.0,0.0,0.0,0.0,0.0,15.0
26.41,0.0,0.0,0.0,0.0,0.0,0.0,0.0,15.0
26.43,0.0,0.0,0.0,0.0,0.0,0.0,0.0,15.0
26.55,0.0,0.0,0.0,0.0,0.0,0.0,0.0,15.0
26.47,0.0,0.0,0.0,0.0,0.0,0.0,0.0,15.0
26.77,0.0,0.0,0.0,0.0,0.0,0.0,0.0,15.0
26.87,0.0,0.0,0.0,0.0,0.0,0.0,0.0,15.0
26.91,0.0,0.0,0.0,0.0,0.0,136.0,0.0,15.0
26.91,0.0,0.0,0.0,0.0,0.0,0.0,0.0,15.0
27.03,0.0,0.0,0.0,0.0,0.0,0.0,0.0,15.0
26.97,0.0,0.0,0.0,0.0,0.0,0.0,0.0,15.0
26.91,0.0,0.0,0.0,0.0,0.0,0.0,0.0,15.0
26.97,0.0,0.0,0.0,0.0,0.0,0.0,0.0,15.0
26.99,0.0,0.0,0.0,0.0,0.0,0.0,0.0,15.0
27.03,0.0,0.0,0.0,0.0,0.0,0.0,0.0,22.0
26.91,0.0,0.0,0.0,0.0,0.0,0.0,0.0,32.0
26.87,0.0,0.0,0.0,0.0,0.0,0.0,0.0,43.0
26.79,0.0,0.0,0.0,0.0,0.0,0.0,0.0,52.0
26.99,0.0,0.0,0.0,0.0,0.0,0.0,0.0,62.0
26.99,0.0,0.0,0.0,0.0,0.0,0.0,0.0,72.0
26.93,0.0,0.0,0.0,0.0,0.0,0.0,0.0,82.0
26.91,0.0,0.0,0.0,0.0,0.0,0.0,0.0,92.0
26.93,0.0,261.0,0.0,0.0,0.0,0.0,610.0,100.0
26.97,0.0,261.0,0.0,0.0,0.0,0.0,718.0,100.0
26.93,0.0,276.0,0.0,0.0,0.0,0.0,756.0,100.0
26.83,0.0,282.0,0.0,0.0,0.0,0.0,786.0,100.0
26.97,0.0,294.0,0.0,0.0,0.0,0.0,805.0,100.0
26.97,0.0,290.0,0.0,0.0,0.0,0.0,826.0,100.0
26.99,0.0,313.0,0.0,0.0,0.0,0.0,829.0,100.0
26.87,0.0,300.0,0.0,0.0,0.0,0.0,782.0,100.0
26.97,0.0,310.0,0.0,0.0,0.0,0.0,779.0,100.0
26.97,0.0,353.0,0.0,0.0,0.0,0.0,1150.0,100.0
26.85,0.0,374.0,0.0,0.0,0.0,0.0,1287.0,100.0
26.93,0.0,371.0,0.0,0.0,0.0,0.0,1292.0,100.0
27.03,0.0,373.0,0.0,0.0,0.0,0.0,1290.0,100.0
26.93,0.0,378.0,0.0,0.0,0.0,0.0,1318.0,100.0
26.93,0.0,394.0,0.0,0.0,0.0,0.0,1316.0,100.0
27.05,0.0,382.0,0.0,0.0,0.0,0.0,1314.0,100.0
26.97,0.0,368.0,0.0,0.0,0.0,0.0,1320.0,100.0
27.03,0.0,388.0,0.0,0.0,0.0,0.0,1321.0,100.0
26.99,0.0,384.0,0.0,0.0,0.0,0.0,1322.0,100.0
26.97,0.0,387.0,0.0,0.0,0.0,0.0,1335.0,100.0
26.97,0.0,387.0,0.0,0.0,0.0,0.0,1338.0,100.0
26.97,0.0,409.0,0.0,0.0,0.0,0.0,1350.0,100.0
26.97,0.0,391.0,0.0,0.0,0.0,0.0,1363.0,100.0
26.93,0.0,387.0,0.0,0.0,0.0,0.0,1357.0,100.0
26.91,0.0,395.0,0.0,0.0,0.0,0.0,1375.0,100.0
26.87,0.0,397.0,0.0,0.0,0.0,0.0,1372.0,100.0
26.91,0.0,409.0,0.0,0.0,0.0,0.0,1359.0,100.0
26.97,0.0,402.0,0.0,0.0,0.0,0.0,1338.0,100.0
26.83,0.0,401.0,0.0,0.0,0.0,0.0,1340.0,100.0
26.97,0.0,394.0,0.0,0.0,0.0,0.0,1375.0,100.0
26.93,0.0,400.0,0.0,0.0,0.0,0.0,1382.0,100.0
26.91,0.0,396.0,0.0,0.0,0.0,0.0,1367.0,100.0
26.91,0.0,399.0,0.0,0.0,0.0,0.0,1369.0,100.0
26.91,0.0,320.0,0.0,0.0,0.0,0.0,1378.0,100.0
26.97,0.0,399.0,0.0,0.0,0.0,0.0,1421.0,100.0
26.97,0.0,400.0,0.0,0.0,0.0,0.0,1407.0,100.0
26.93,0.0,400.0,0.0,0.0,0.0,0.0,1402.0,100.0
26.91,0.0,317.0,0.0,0.0,0.0,0.0,1418.0,100.0
26.83,0.0,400.0,0.0,0.0,0.0,0.0,1436.0,100.0
26.87,0.0,399.0,0.0,0.0,0.0,0.0,1467.0,100.0
26.99,0.0,391.0,0.0,0.0,0.0,0.0,1480.0,100.0
27.03,0.0,398.0,0.0,0.0,0.0,0.0,1499.0,100.0
26.93,0.0,390.0,0.0,0.0,0.0,0.0,1557.0,100.0
26.93,0.0,395.0,278.0,0.0,0.0,0.0,1566.0,100.0
26.85,0.0,370.0,0.0,0.0,0.0,0.0,1547.0,100.0
26.87,0.0,293.0,0.0,0.0,0.0,0.0,1559.0,100.0
26.97,0.0,395.0,0.0,0.0,0.0,0.0,1536.0,100.0
26.97,0.0,392.0,0.0,0.0,0.0,0.0,1559.0,100.0
26.87,0.0,399.0,0.0,0.0,0.0,0.0,1561.0,100.0
26.97,0.0,399.0,0.0,0.0,0.0,0.0,1563.0,100.0
26.93,0.0,404.0,0.0,0.0,0.0,0.0,1560.0,100.0
26.97,0.0,400.0,0.0,0.0,0.0,0.0,1556.0,100.0
26.93,0.0,304.0,0.0,0.0,0.0,0.0,1547.0,100.0
26.83,0.0,400.0,0.0,0.0,0.0,0.0,1525.0,100.0
26.91,0.0,406.0,0.0,0.0,0.0,0.0,1502.0,100.0
26.83,0.0,400.0,0.0,0.0,0.0,0.0,1512.0,100.0
26.83,0.0,411.0,0.0,0.0,0.0,0.0,1521.0,100.0
26.85,0.0,407.0,0.0,0.0,0.0,0.0,1530.0,100.0
26.85,0.0,403.0,0.0,0.0,0.0,0.0,1522.0,100.0
26.97,0.0,402.0,0.0,0.0,0.0,0.0,1539.0,100.0
26.97,0.0,402.0,0.0,0.0,0.0,0.0,1582.0,100.0
26.87,0.0,396.0,0.0,0.0,0.0,0.0,1595.0,100.0
26.99,0.0,395.0,0.0,0.0,0.0,0.0,1592.0,100.0
26.99,0.0,385.0,0.0,0.0,0.0,0.0,1597.0,100.0
26.83,0.0,397.0,0.0,0.0,0.0,0.0,1597.0,100.0
26.93,0.0,394.0,0.0,0.0,0.0,0.0,1595.0,100.0
26.93,0.0,395.0,0.0,0.0,0.0,0.0,1594.0,100.0
26.87,0.0,395.0,0.0,0.0,0.0,0.0,1602.0,100.0
26.87,0.0,384.0,0.0,0.0,0.0,0.0,1576.0,100.0
26.87,0.0,299.0,0.0,0.0,0.0,0.0,1596.0,100.0
26.83,0.0,398.0,0.0,0.0,0.0,0.0,1596.0,100.0
26.83,0.0,400.0,0.0,0.0,0.0,0.0,1604.0,100.0
26.83,0.0,388.0,0.0,0.0,0.0,0.0,1597.0,100.0
26.83,0.0,398.0,0.0,0.0,0.0,0.0,1603.0,100.0
26.83,0.0,401.0,0.0,0.0,0.0,0.0,1594.0,100.0
26.91,0.0,397.0,0.0,0.0,0.0,0.0,1598.0,100.0
26.87,0.0,400.0,0.0,0.0,0.0,0.0,1611.0,100.0
26.83,0.0,403.0,0.0,0.0,0.0,0.0,1603.0,100.0
26.83,0.0,202.0,0.0,0.0,0.0,0.0,1595.0,100.0
26.97,0.0,399.0,0.0,0.0,0.0,0.0,1609.0,100.0
26.85,0.0,399.0,0.0,0.0,0.0,0.0,1609.0,100.0
26.85,0.0,0.0,0.0,0.0,0.0,0.0,37.0,15.0
26.83,0.0,0.0,0.0,0.0,0.0,0.0,0.0,15.0
26.47,0.0,0.0,0.0,0.0,0.0,0.0,0.0,15.0
26.55,0.0,0.0,0.0,0.0,0.0,0.0,0.0,15.0
26.47,0.0,0.0,0.0,0.0,0.0,0.0,0.0,15.0
26.31,0.0,0.0,0.0,0.0,0.0,0.0,0.0,15.0
26.41,0.0,0.0,0.0,0.0,0.0,0.0,0.0,15.0
26.35,0.0,0.0,0.0,0.0,0.0,0.0,0.0,15.0
26.43,0.0,0.0,0.0,0.0,0.0,0.0,0.0,15.0
26.37,0.0,0.0,0.0,0.0,0.0,0.0,0.0,15.0
26.43,0.0,0.0,0.0,0.0,0.0,0.0,0.0,15.0
26.41,0.0,0.0,0.0,0.0,0.0,0.0,0.0,15.0
26.41,0.0,0.0,0.0,0.0,0.0,0.0,0.0,15.0
26.41,0.0,0.0,0.0,0.0,0.0,0.0,0.0,15.0
26.49,0.0,0.0,0.0,0.0,0.0,0.0,0.0,15.0
26.43,0.0,0.0,0.0,0.0,0.0,0.0,0.0,15.0
26.53,0.0,0.0,0.0,0.0,0.0,0.0,0.0,15.0
26.47,0.0,0.0,0.0,0.0,0.0,0.0,0.0,15.0
26.37,0.0,0.0,0.0,0.0,0.0,0.0,0.0,15.0
26.31,0.0,0.0,0.0,0.0,0.0,0.0,0.0,15.0
26.53,0.0,0.0,0.0,0.0,0.0,0.0,0.0,15.0
26.53,0.0,0.0,0.0,0.0,0.0,0.0,0.0,15.0
26.55,0.0,0.0,0.0,0.0,0.0,0.0,0.0,15.0
26.53,0.0,0.0,0.0,0.0,0.0,0.0,0.0,15.0
26.49,0.0,0.0,0.0,0.0,0.0,0.0,0.0,15.0
26.59,0.0,0.0,0.0,0.0,0.0,0.0,0.0,15.0
26.65,0.0,0.0,0.0,0.0,0.0,0.0,0.0,15.0
26.59,0.0,0.0,0.0,0.0,0.0,0.0,0.0,15.0
26.53,0.0,0.0,0.0,0.0,0.0,0.0,0.0,15.0
26.65,0.0,0.0,0.0,0.0,0.0,0.0,0.0,15.0
26.59,0.0,0.0,0.0,0.0,0.0,0.0,0.0,15.0
26.59,0.0,0.0,0.0,0.0,0.0,0.0,0.0,15.0
26.59,0.0,0.0,0.0,0.0,0.0,0.0,0.0,15.0
26.37,0.0,0.0,0.0,0.0,0.0,0.0,0.0,15.0
26.47,0.0,0.0,0.0,0.0,0.0,0.0,0.0,15.0
26.43,0.0,0.0,0.0,0.0,0.0,0.0,0.0,15.0
26.61,0.0,0.0,0.0,0.0,0.0,0.0,0.0,15.0
26.67,0.0,0.0,0.0,0.0,0.0,0.0,0.0,15.0
26.77,0.0,0.0,0.0,0.0,0.0,0.0,0.0,15.0
26.79,0.0,0.0,0.0,0.0,0.0,0.0,0.0,15.0
26.83,0.0,0.0,0.0,0.0,0.0,0.0,0.0,15.0
26.91,0.0,0.0,0.0,0.0,0.0,0.0,0.0,15.0
26.85,0.0,0.0,0.0,0.0,0.0,0.0,0.0,15.0
26.93,0.0,0.0,0.0,0.0,0.0,0.0,0.0,15.0
26.99,0.0,0.0,0.0,0.0,0.0,0.0,0.0,15.0
26.99,0.0,0.0,0.0,0.0,0.0,0.0,0.0,15.0
27.49,0.0,0.0,0.0,0.0,0.0,0.0,0.0,15.0
28.01,0.0,0.0,0.0,0.0,0.0,0.0,0.0,15.0
30.93,0.0,0.0,0.0,0.0,0.0,0.0,0.0,15.0
35.69,0.0,0.0,0.0,0.0,0.0,0.0,0.0,15.0
38.29,0.0,0.0,0.0,0.0,0.0,0.0,0.0,15.0
38.89,0.0,0.0,0.0,0.0,0.0,0.0,0.0,18.0
39.47,0.0,0.0,0.0,0.0,0.0,0.0,0.0,28.0
39.83,0.0,0.0,0.0,0.0,0.0,0.0,0.0,38.0
40.01,0.0,0.0,0.0,0.0,0.0,0.0,0.0,48.0
40.13,0.0,0.0,0.0,0.0,0.0,0.0,0.0,57.0
40.43,0.0,0.0,0.0,0.0,0.0,0.0,707.0,66.0
40.43,0.0,619.0,0.0,0.0,0.0,0.0,848.0,76.0
40.09,0.0,644.0,0.0,0.0,0.0,0.0,1687.0,87.0
39.95,0.0,663.0,0.0,0.0,0.0,0.0,1720.0,97.0
39.89,0.0,688.0,0.0,0.0,0.0,0.0,1784.0,100.0
39.89,0.0,698.0,0.0,0.0,0.0,0.0,1824.0,100.0
39.91,0.0,685.0,0.0,0.0,0.0,0.0,1868.0,100.0
39.91,0.0,673.0,0.0,0.0,0.0,0.0,1887.0,100.0
39.93,0.0,68.0,0.0,0.0,0.0,0.0,1040.0,100.0
39.95,0.0,0.0,0.0,0.0,0.0,0.0,742.0,100.0
39.95,0.0,0.0,0.0,0.0,0.0,0.0,674.0,100.0
39.99,0.0,0.0,0.0,0.0,0.0,0.0,640.0,100.0
39.99,0.0,0.0,0.0,0.0,0.0,0.0,694.0,100.0
39.95,0.0,0.0,0.0,0.0,0.0,0.0,467.0,100.0
40.03,0.0,0.0,0.0,0.0,0.0,0.0,455.0,100.0
39.99,0.0,0.0,0.0,0.0,0.0,0.0,478.0,100.0
39.95,0.0,0.0,0.0,0.0,0.0,0.0,456.0,100.0
40.01,0.0,0.0,0.0,0.0,0.0,0.0,529.0,100.0
39.93,0.0,0.0,0.0,0.0,0.0,0.0,551.0,100.0
39.95,0.0,0.0,0.0,0.0,0.0,0.0,568.0,100.0
40.01,0.0,0.0,0.0,0.0,0.0,0.0,583.0,100.0
40.03,0.0,0.0,0.0,0.0,0.0,0.0,583.0,100.0
40.03,0.0,0.0,0.0,0.0,0.0,0.0,587.0,100.0
39.93,0.0,0.0,0.0,0.0,0.0,0.0,591.0,100.0
39.93,0.0,0.0,0.0,0.0,0.0,0.0,604.0,100.0
39.93,0.0,0.0,0.0,0.0,0.0,0.0,626.0,100.0
39.91,0.0,0.0,0.0,0.0,0.0,0.0,640.0,100.0
39.95,0.0,0.0,0.0,0.0,0.0,0.0,661.0,100.0
39.93,0.0,0.0,0.0,0.0,0.0,0.0,659.0,100.0
39.95,0.0,0.0,0.0,0.0,0.0,0.0,679.0,100.0
39.93,0.0,0.0,0.0,0.0,0.0,0.0,691.0,100.0
39.85,0.0,0.0,0.0,0.0,0.0,0.0,761.0,100.0
39.81,0.0,0.0,0.0,0.0,0.0,0.0,801.0,100.0
39.81,0.0,0.0,0.0,0.0,0.0,0.0,831.0,100.0
39.73,0.0,0.0,0.0,0.0,0.0,0.0,858.0,100.0
39.73,0.0,0.0,0.0,0.0,0.0,0.0,877.0,100.0
39.65,0.0,0.0,0.0,0.0,0.0,0.0,877.0,100.0
39.59,0.0,0.0,0.0,0.0,0.0,0.0,887.0,100.0
39.59,0.0,0.0,0.0,0.0,0.0,0.0,852.0,100.0
39.57,0.0,0.0,0.0,0.0,0.0,0.0,672.0,100.0
39.49,0.0,0.0,0.0,0.0,0.0,0.0,667.0,100.0
39.41,0.0,0.0,0.0,0.0,0.0,0.0,711.0,100.0
39.31,0.0,0.0,0.0,0.0,0.0,0.0,655.0,100.0
39.23,0.0,0.0,0.0,0.0,0.0,0.0,663.0,100.0
39.19,0.0,0.0,0.0,0.0,0.0,0.0,727.0,100.0
39.09,0.0,0.0,0.0,0.0,0.0,0.0,794.0,100.0
39.11,0.0,0.0,0.0,0.0,0.0,0.0,808.0,100.0
38.93,0.0,0.0,0.0,0.0,0.0,0.0,867.0,100.0
38.85,0.0,0.0,0.0,0.0,0.0,0.0,883.0,100.0
38.89,0.0,0.0,0.0,0.0,0.0,0.0,908.0,100.0
38.89,0.0,0.0,0.0,0.0,0.0,0.0,923.0,100.0
38.95,0.0,0.0,0.0,0.0,0.0,0.0,925.0,100.0
38.93,0.0,0.0,0.0,0.0,0.0,0.0,918.0,100.0
38.93,0.0,0.0,0.0,0.0,0.0,0.0,922.0,100.0
38.97,0.0,0.0,0.0,0.0,0.0,0.0,1045.0,100.0
38.97,0.0,0.0,0.0,0.0,0.0,0.0,1083.0,100.0
39.01,0.0,0.0,0.0,0.0,0.0,0.0,1104.0,100.0
38.95,0.0,0.0,0.0,0.0,0.0,0.0,1136.0,100.0
38.89,0.0,0.0,0.0,0.0,0.0,0.0,1155.0,100.0
38.87,0.0,0.0,0.0,0.0,0.0,0.0,1159.0,100.0
38.85,0.0,0.0,0.0,0.0,0.0,0.0,1162.0,100.0
38.89,0.0,0.0,0.0,0.0,0.0,0.0,1176.0,100.0
38.93,0.0,0.0,0.0,0.0,0.0,0.0,1176.0,100.0
38.95,0.0,0.0,0.0,0.0,0.0,0.0,1179.0,100.0
38.93,0.0,0.0,0.0,0.0,0.0,0.0,1184.0,100.0
38.93,0.0,0.0,0.0,0.0,0.0,0.0,1182.0,100.0
38.89,0.0,0.0,0.0,0.0,0.0,0.0,1179.0,100.0
38.81,0.0,0.0,0.0,0.0,0.0,0.0,1179.0,100.0
38.75,0.0,0.0,0.0,0.0,0.0,0.0,1187.0,100.0
38.69,0.0,0.0,0.0,0.0,0.0,0.0,1194.0,100.0
38.63,0.0,0.0,0.0,0.0,0.0,0.0,1191.0,100.0
38.53,0.0,0.0,0.0,0.0,0.0,0.0,1182.0,100.0
38.53,0.0,0.0,0.0,0.0,0.0,0.0,1193.0,100.0
38.53,0.0,0.0,0.0,0.0,0.0,0.0,1189.0,100.0
38.53,0.0,0.0,0.0,0.0,0.0,0.0,1198.0,100.0
38.53,0.0,0.0,0.0,0.0,0.0,0.0,1198.0,100.0
38.59,0.0,0.0,0.0,0.0,0.0,0.0,1191.0,100.0
38.55,0.0,0.0,0.0,0.0,0.0,0.0,1199.0,100.0
38.59,0.0,0.0,0.0,0.0,0.0,0.0,1194.0,100.0
38.59,0.0,0.0,0.0,0.0,0.0,0.0,1192.0,100.0
38.67,0.0,0.0,0.0,0.0,0.0,0.0,1196.0,100.0
38.77,0.0,0.0,0.0,0.0,0.0,0.0,1199.0,100.0
38.79,0.0,0.0,0.0,0.0,0.0,0.0,1200.0,100.0
38.85,0.0,0.0,0.0,0.0,0.0,0.0,1205.0,100.0
38.79,0.0,0.0,0.0,0.0,0.0,0.0,1199.0,100.0
38.85,0.0,0.0,0.0,0.0,0.0,0.0,1201.0,100.0
38.79,0.0,0.0,0.0,0.0,0.0,0.0,1195.0,100.0
38.67,0.0,0.0,0.0,0.0,0.0,0.0,1202.0,100.0
38.59,0.0,0.0,0.0,0.0,0.0,0.0,1207.0,100.0
38.59,0.0,0.0,0.0,0.0,0.0,0.0,1200.0,15.0
38.67,0.0,0.0,0.0,0.0,0.0,0.0,34.0,15.0
27.25,0.0,0.0,0.0,0.0,0.0,0.0,0.0,15.0
27.15,0.0,0.0,0.0,0.0,0.0,0.0,0.0,15.0
27.09,0.0,0.0,0.0,0.0,0.0,0.0,0.0,15.0
27.11,0.0,0.0,0.0,0.0,0.0,0.0,0.0,15.0
27.11,0.0,0.0,0.0,0.0,0.0,0.0,0.0,15.0
27.11,0.0,0.0,0.0,0.0,0.0,0.0,0.0,15.0
27.15,0.0,0.0,0.0,0.0,0.0,0.0,0.0,15.0
27.47,0.0,0.0,0.0,0.0,0.0,0.0,0.0,15.0
27.43,0.0,0.0,0.0,0.0,0.0,0.0,0.0,15.0
27.05,0.0,0.0,0.0,0.0,0.0,0.0,0.0,15.0
27.11,0.0,0.0,0.0,0.0,0.0,0.0,0.0,15.0
27.05,0.0,0.0,0.0,0.0,0.0,0.0,0.0,15.0
26.85,0.0,0.0,0.0,0.0,0.0,0.0,0.0,15.0
26.85,0.0,0.0,0.0,0.0,0.0,0.0,0.0,15.0
26.93,0.0,0.0,0.0,0.0,0.0,0.0,0.0,15.0
26.85,0.0,0.0,0.0,0.0,0.0,0.0,0.0,15.0
26.87,0.0,0.0,0.0,0.0,0.0,0.0,0.0,15.0
26.93,0.0,0.0,0.0,0.0,0.0,0.0,0.0,15.0
26.91,0.0,0.0,0.0,0.0,0.0,0.0,0.0,15.0
26.91,0.0,0.0,0.0,0.0,0.0,0.0,0.0,15.0
26.97,0.0,0.0,0.0,0.0,0.0,0.0,0.0,15.0
26.93,0.0,0.0,0.0,0.0,0.0,0.0,0.0,15.0
26.97,0.0,0.0,0.0,0.0,0.0,0.0,0.0,15.0
26.91,0.0,0.0,0.0,0.0,0.0,0.0,0.0,15.0
26.91,0.0,0.0,0.0,0.0,0.0,0.0,0.0,15.0
26.87,0.0,0.0,0.0,0.0,0.0,0.0,0.0,15.0
26.79,0.0,0.0,0.0,0.0,0.0,0.0,0.0,15.0
26.85,0.0,0.0,0.0,0.0,0.0,0.0,0.0,15.0
26.73,0.0,0.0,0.0,0.0,0.0,0.0,0.0,15.0
26.79,0.0,0.0,0.0,0.0,0.0,0.0,0.0,15.0
26.77,0.0,0.0,0.0,0.0,0.0,0.0,0.0,15.0
26.77,0.0,0.0,0.0,0.0,0.0,0.0,0.0,15.0
26.71,0.0,0.0,0.0,0.0,0.0,0.0,0.0,15.0
26.77,0.0,0.0,0.0,0.0,0.0,0.0,0.0,15.0
26.79,0.0,0.0,0.0,0.0,0.0,0.0,0.0,15.0
26.83,0.0,0.0,0.0,0.0,0.0,0.0,0.0,15.0
26.83,0.0,0.0,0.0,0.0,0.0,0.0,0.0,15.0
26.83,0.0,0.0,0.0,0.0,0.0,0.0,0.0,15.0
26.83,0.0,0.0,0.0,0.0,0.0,0.0,0.0,15.0
26.77,0.0,0.0,0.0,0.0,0.0,0.0,0.0,15.0
26.73,0.0,0.0,0.0,0.0,0.0,0.0,0.0,15.0
26.79,0.0,0.0,0.0,0.0,0.0,0.0,0.0,15.0
26.77,0.0,0.0,0.0,0.0,0.0,0.0,0.0,15.0
26.77,0.0,0.0,0.0,0.0,0.0,0.0,0.0,15.0
26.77,0.0,0.0,0.0,0.0,0.0,0.0,0.0,15.0
27.41,0.0,0.0,0.0,0.0,0.0,0.0,0.0,15.0
27.43,0.0,0.0,0.0,0.0,0.0,0.0,0.0,15.0
27.41,0.0,0.0,0.0,0.0,0.0,0.0,0.0,15.0
27.37,0.0,0.0,0.0,0.0,0.0,0.0,0.0,15.0
27.55,0.0,0.0,0.0,0.0,0.0,0.0,0.0,25.0
27.55,0.0,0.0,0.0,0.0,0.0,0.0,0.0,36.0
27.53,0.0,0.0,0.0,0.0,0.0,0.0,0.0,45.0
27.49,0.0,0.0,0.0,0.0,0.0,0.0,0.0,56.0
27.49,0.0,0.0,72.0,0.0,0.0,0.0,0.0,66.0
27.41,0.0,0.0,0.0,0.0,0.0,0.0,0.0,76.0
27.35,0.0,0.0,0.0,0.0,0.0,0.0,0.0,85.0
27.37,0.0,0.0,0.0,0.0,0.0,140.0,0.0,95.0
27.29,0.0,0.0,30.0,0.0,0.0,618.0,84.0,100.0
27.35,0.0,0.0,113.0,0.0,0.0,634.0,77.0,100.0
27.41,0.0,0.0,192.0,0.0,0.0,652.0,72.0,100.0
27.29,0.0,0.0,256.0,0.0,0.0,657.0,61.0,100.0
27.25,0.0,0.0,160.0,0.0,0.0,570.0,69.0,100.0
27.29,0.0,0.0,208.0,0.0,0.0,567.0,74.0,100.0
27.31,0.0,0.0,178.0,0.0,0.0,587.0,70.0,100.0
27.29,0.0,0.0,256.0,0.0,0.0,583.0,76.0,100.0
27.23,0.0,0.0,289.0,0.0,0.0,592.0,77.0,100.0
27.21,0.0,0.0,305.0,0.0,0.0,603.0,76.0,100.0
27.31,0.0,0.0,331.0,0.0,0.0,609.0,81.0,100.0
27.25,0.0,0.0,330.0,0.0,0.0,607.0,72.0,100.0
27.35,0.0,0.0,341.0,0.0,0.0,607.0,79.0,100.0
27.35,0.0,0.0,368.0,0.0,0.0,613.0,70.0,100.0
27.35,0.0,0.0,347.0,0.0,0.0,620.0,73.0,100.0
27.25,0.0,0.0,375.0,0.0,0.0,617.0,72.0,100.0
27.29,0.0,0.0,377.0,0.0,0.0,626.0,76.0,100.0
27.31,0.0,0.0,393.0,0.0,0.0,623.0,79.0,100.0
27.23,0.0,0.0,387.0,0.0,0.0,602.0,75.0,100.0
27.25,0.0,0.0,385.0,0.0,0.0,614.0,80.0,100.0
27.17,0.0,0.0,400.0,0.0,0.0,602.0,75.0,100.0
27.17,0.0,0.0,393.0,0.0,0.0,603.0,82.0,100.0
27.23,0.0,0.0,400.0,0.0,0.0,599.0,80.0,100.0
27.25,0.0,0.0,404.0,0.0,0.0,598.0,77.0,100.0
27.17,0.0,0.0,396.0,0.0,0.0,588.0,78.0,100.0
27.23,0.0,0.0,394.0,0.0,0.0,593.0,79.0,100.0
27.29,0.0,0.0,400.0,0.0,0.0,589.0,83.0,100.0
27.25,0.0,0.0,417.0,0.0,0.0,592.0,75.0,100.0
27.29,0.0,0.0,407.0,0.0,0.0,593.0,76.0,100.0
27.25,0.0,0.0,408.0,0.0,0.0,592.0,76.0,100.0
27.29,0.0,0.0,404.0,0.0,0.0,524.0,84.0,100.0
27.29,0.0,0.0,399.0,0.0,0.0,609.0,77.0,100.0
27.25,0.0,0.0,397.0,0.0,0.0,580.0,76.0,100.0
27.35,0.0,0.0,406.0,0.0,0.0,582.0,74.0,100.0
27.37,0.0,0.0,415.0,0.0,0.0,591.0,77.0,100.0
27.37,0.0,0.0,413.0,0.0,0.0,599.0,81.0,100.0
27.37,0.0,0.0,409.0,0.0,0.0,594.0,74.0,100.0
27.31,0.0,0.0,406.0,0.0,0.0,587.0,79.0,100.0
27.31,0.0,0.0,339.0,0.0,0.0,591.0,74.0,100.0
27.35,0.0,0.0,415.0,0.0,0.0,593.0,73.0,100.0
27.37,0.0,0.0,412.0,0.0,0.0,592.0,72.0,100.0
27.37,0.0,0.0,398.0,0.0,0.0,585.0,69.0,100.0
27.35,0.0,0.0,410.0,0.0,0.0,591.0,77.0,100.0
27.35,0.0,0.0,385.0,0.0,0.0,590.0,74.0,100.0
27.31,0.0,0.0,397.0,0.0,0.0,584.0,71.0,100.0
27.29,0.0,0.0,411.0,0.0,0.0,592.0,69.0,100.0
27.35,0.0,0.0,410.0,0.0,0.0,592.0,67.0,100.0
27.35,0.0,0.0,411.0,0.0,0.0,592.0,71.0,100.0
27.31,0.0,0.0,420.0,0.0,0.0,596.0,72.0,100.0
27.31,0.0,0.0,421.0,0.0,0.0,592.0,75.0,100.0
27.31,0.0,0.0,420.0,0.0,0.0,592.0,68.0,100.0
27.31,0.0,0.0,419.0,0.0,0.0,594.0,72.0,100.0
27.35,0.0,0.0,423.0,0.0,0.0,596.0,68.0,100.0
27.35,0.0,0.0,423.0,0.0,0.0,598.0,73.0,100.0
27.31,0.0,0.0,416.0,0.0,0.0,592.0,69.0,100.0
27.29,0.0,0.0,422.0,0.0,0.0,592.0,75.0,100.0
27.31,0.0,0.0,422.0,0.0,0.0,599.0,72.0,100.0
27.29,0.0,0.0,425.0,0.0,0.0,597.0,69.0,100.0
27.31,0.0,0.0,432.0,0.0,0.0,602.0,68.0,100.0
27.29,0.0,0.0,423.0,0.0,0.0,601.0,77.0,100.0
27.35,0.0,0.0,430.0,0.0,0.0,594.0,70.0,100.0
27.31,0.0,0.0,430.0,0.0,0.0,592.0,78.0,100.0
27.29,0.0,0.0,420.0,0.0,0.0,605.0,72.0,100.0
27.23,0.0,0.0,431.0,0.0,0.0,605.0,71.0,100.0
27.29,0.0,0.0,427.0,0.0,0.0,602.0,70.0,100.0
27.23,0.0,0.0,432.0,0.0,0.0,599.0,67.0,100.0
27.31,0.0,0.0,433.0,0.0,0.0,603.0,69.0,100.0
27.29,0.0,0.0,509.0,0.0,0.0,598.0,67.0,100.0
27.29,0.0,0.0,423.0,0.0,0.0,592.0,69.0,100.0
27.31,0.0,0.0,426.0,0.0,0.0,601.0,67.0,100.0
27.25,0.0,0.0,485.0,0.0,0.0,598.0,68.0,100.0
27.31,0.0,0.0,432.0,0.0,0.0,603.0,68.0,100.0
27.25,0.0,0.0,432.0,0.0,0.0,605.0,69.0,100.0
27.31,0.0,0.0,432.0,0.0,0.0,604.0,68.0,100.0
27.29,0.0,0.0,439.0,0.0,0.0,601.0,71.0,100.0
27.23,0.0,0.0,435.0,0.0,0.0,604.0,67.0,100.0
27.23,0.0,0.0,435.0,0.0,0.0,604.0,68.0,100.0
27.21,0.0,0.0,442.0,0.0,0.0,611.0,73.0,100.0
27.17,0.0,0.0,444.0,0.0,0.0,602.0,67.0,100.0
27.29,0.0,0.0,417.0,0.0,0.0,598.0,64.0,100.0
27.21,0.0,0.0,437.0,0.0,0.0,592.0,64.0,100.0
27.29,0.0,0.0,431.0,0.0,0.0,601.0,68.0,100.0
27.25,0.0,0.0,443.0,0.0,0.0,601.0,71.0,100.0
27.23,0.0,0.0,439.0,0.0,0.0,603.0,64.0,100.0
27.23,0.0,0.0,436.0,0.0,0.0,608.0,67.0,100.0
27.17,0.0,0.0,574.0,0.0,0.0,603.0,65.0,100.0
27.25,0.0,0.0,442.0,0.0,0.0,605.0,72.0,100.0
27.21,0.0,0.0,0.0,0.0,0.0,0.0,0.0,15.0
27.25,0.0,0.0,0.0,0.0,0.0,0.0,0.0,15.0
26.53,0.0,0.0,0.0,0.0,0.0,0.0,0.0,15.0
26.53,0.0,0.0,0.0,0.0,0.0,0.0,0.0,15.0
26.59,0.0,0.0,0.0,0.0,0.0,0.0,0.0,15.0
26.65,0.0,0.0,0.0,0.0,0.0,0.0,0.0,15.0
27.17,0.0,0.0,0.0,0.0,0.0,0.0,0.0,15.0
27.21,0.0,0.0,0.0,0.0,0.0,0.0,0.0,15.0
26.93,0.0,0.0,0.0,0.0,0.0,0.0,0.0,15.0
26.67,0.0,0.0,0.0,0.0,0.0,0.0,0.0,15.0
26.61,0.0,0.0,0.0,0.0,0.0,0.0,0.0,15.0
26.67,0.0,0.0,0.0,0.0,0.0,0.0,0.0,15.0
26.73,0.0,0.0,0.0,0.0,0.0,0.0,0.0,15.0
26.67,0.0,0.0,0.0,0.0,0.0,0.0,0.0,15.0
26.67,0.0,0.0,0.0,0.0,0.0,0.0,0.0,15.0
26.67,0.0,0.0,0.0,0.0,0.0,0.0,0.0,15.0
26.67,0.0,0.0,0.0,0.0,0.0,0.0,0.0,15.0
26.67,0.0,0.0,0.0,0.0,0.0,0.0,0.0,15.0
26.61,0.0,0.0,0.0,0.0,0.0,0.0,0.0,15.0
26.65,0.0,0.0,0.0,0.0,0.0,0.0,0.0,15.0
26.65,0.0,0.0,0.0,0.0,0.0,0.0,0.0,15.0
26.65,0.0,0.0,0.0,0.0,0.0,0.0,0.0,15.0
26.71,0.0,0.0,0.0,0.0,0.0,0.0,0.0,15.0
26.77,0.0,0.0,0.0,0.0,0.0,0.0,0.0,15.0
26.71,0.0,0.0,0.0,0.0,0.0,0.0,0.0,15.0
26.77,0.0,0.0,0.0,0.0,0.0,0.0,0.0,15.0
26.85,0.0,0.0,0.0,0.0,0.0,0.0,0.0,15.0
26.83,0.0,0.0,0.0,0.0,0.0,0.0,0.0,15.0
26.85,0.0,0.0,0.0,0.0,0.0,0.0,0.0,15.0
26.85,0.0,0.0,0.0,0.0,0.0,0.0,0.0,15.0
26.85,0.0,0.0,0.0,0.0,0.0,0.0,0.0,15.0
26.85,0.0,0.0,0.0,0.0,0.0,0.0,0.0,15.0
26.87,0.0,0.0,0.0,0.0,0.0,0.0,0.0,15.0
26.85,0.0,0.0,0.0,0.0,0.0,0.0,0.0,15.0
26.79,0.0,0.0,0.0,0.0,0.0,0.0,0.0,15.0
26.85,0.0,0.0,0.0,0.0,0.0,0.0,0.0,15.0
26.87,0.0,0.0,0.0,0.0,0.0,0.0,0.0,15.0
26.91,0.0,0.0,0.0,0.0,0.0,0.0,0.0,15.0
26.93,0.0,0.0,0.0,0.0,0.0,0.0,0.0,15.0
26.85,0.0,0.0,0.0,0.0,0.0,0.0,0.0,15.0
26.77,0.0,0.0,0.0,0.0,0.0,0.0,0.0,15.0
26.79,0.0,0.0,0.0,0.0,0.0,0.0,0.0,15.0
26.79,0.0,0.0,0.0,0.0,0.0,0.0,0.0,15.0
26.77,0.0,0.0,0.0,0.0,0.0,0.0,0.0,15.0
26.73,0.0,0.0,0.0,0.0,0.0,0.0,0.0,15.0
26.71,0.0,0.0,0.0,0.0,0.0,0.0,0.0,15.0
26.77,0.0,0.0,0.0,0.0,0.0,0.0,0.0,15.0
26.93,0.0,0.0,0.0,0.0,0.0,0.0,0.0,15.0
27.29,0.0,0.0,0.0,0.0,0.0,0.0,0.0,15.0
27.63,0.0,0.0,0.0,0.0,0.0,0.0,0.0,15.0
27.63,0.0,0.0,0.0,0.0,0.0,0.0,0.0,18.0
27.63,0.0,0.0,0.0,0.0,0.0,0.0,0.0,29.0
27.67,0.0,0.0,0.0,0.0,0.0,0.0,0.0,38.0
27.73,177.0,0.0,0.0,0.0,0.0,0.0,0.0,48.0
27.63,0.0,0.0,0.0,0.0,0.0,0.0,0.0,58.0
27.55,0.0,0.0,0.0,0.0,0.0,0.0,0.0,67.0
27.37,0.0,0.0,0.0,0.0,0.0,0.0,1179.0,76.0
27.35,0.0,246.0,0.0,0.0,291.0,0.0,2164.0,85.0
27.31,0.0,343.0,0.0,0.0,363.0,0.0,2165.0,97.0
27.37,0.0,478.0,0.0,0.0,256.0,0.0,2109.0,100.0
27.35,0.0,488.0,0.0,0.0,208.0,0.0,2089.0,100.0
27.31,0.0,448.0,0.0,0.0,160.0,0.0,1994.0,100.0
27.41,0.0,406.0,0.0,0.0,56.0,0.0,2034.0,100.0
27.35,0.0,407.0,0.0,0.0,19.0,0.0,2045.0,100.0
27.43,0.0,455.0,0.0,0.0,0.0,0.0,1866.0,100.0
27.37,0.0,477.0,0.0,0.0,0.0,0.0,1798.0,100.0
27.37,0.0,469.0,0.0,0.0,14.0,0.0,1633.0,100.0
27.37,0.0,559.0,0.0,0.0,48.0,0.0,1688.0,100.0
27.31,0.0,587.0,0.0,0.0,107.0,0.0,1704.0,100.0
27.35,0.0,583.0,0.0,0.0,91.0,0.0,1732.0,100.0
27.41,0.0,587.0,0.0,0.0,112.0,0.0,1763.0,100.0
27.37,0.0,585.0,0.0,0.0,102.0,0.0,1778.0,100.0
27.43,0.0,592.0,0.0,0.0,128.0,0.0,1782.0,100.0
27.41,0.0,589.0,0.0,0.0,142.0,0.0,1793.0,100.0
27.43,0.0,585.0,2.0,0.0,145.0,0.0,1796.0,100.0
27.37,0.0,576.0,0.0,0.0,143.0,0.0,1803.0,100.0
27.43,0.0,592.0,0.0,0.0,143.0,0.0,1803.0,100.0
27.37,0.0,598.0,0.0,0.0,155.0,0.0,1810.0,100.0
27.35,0.0,593.0,0.0,0.0,159.0,0.0,1817.0,100.0
27.35,0.0,590.0,0.0,0.0,154.0,0.0,1824.0,100.0
27.37,0.0,563.0,0.0,0.0,155.0,0.0,1760.0,100.0
27.29,0.0,473.0,0.0,0.0,61.0,0.0,1788.0,100.0
27.31,0.0,583.0,0.0,0.0,0.0,0.0,1814.0,100.0
27.31,0.0,550.0,0.0,0.0,16.0,0.0,1928.0,100.0
27.29,0.0,481.0,0.0,0.0,0.0,0.0,1980.0,100.0
27.31,0.0,316.0,0.0,0.0,0.0,0.0,2025.0,100.0
27.23,0.0,240.0,0.0,0.0,0.0,0.0,2117.0,100.0
27.25,0.0,32.0,0.0,0.0,0.0,0.0,2092.0,100.0
27.23,0.0,96.0,0.0,0.0,0.0,0.0,2286.0,100.0
27.25,0.0,0.0,0.0,0.0,0.0,0.0,2359.0,100.0
27.23,0.0,0.0,0.0,0.0,0.0,0.0,2397.0,100.0
27.23,0.0,16.0,0.0,0.0,0.0,0.0,2397.0,100.0
27.17,0.0,0.0,0.0,0.0,0.0,0.0,2440.0,100.0
27.11,0.0,0.0,0.0,0.0,0.0,0.0,2449.0,100.0
27.09,0.0,0.0,0.0,0.0,0.0,0.0,2456.0,100.0
27.15,0.0,0.0,0.0,0.0,0.0,0.0,2461.0,100.0
27.09,0.0,344.0,0.0,0.0,0.0,0.0,2467.0,100.0
27.05,0.0,0.0,0.0,0.0,0.0,0.0,2471.0,100.0
27.09,0.0,0.0,0.0,0.0,0.0,0.0,2482.0,100.0
27.05,0.0,0.0,0.0,0.0,0.0,0.0,2490.0,100.0
26.97,0.0,0.0,0.0,0.0,0.0,0.0,2487.0,100.0
27.05,0.0,0.0,0.0,0.0,0.0,0.0,2480.0,100.0
27.03,0.0,0.0,0.0,0.0,0.0,0.0,2504.0,100.0
27.05,0.0,0.0,0.0,0.0,0.0,0.0,2508.0,100.0
26.99,0.0,0.0,0.0,0.0,0.0,0.0,2500.0,100.0
27.03,0.0,0.0,0.0,0.0,0.0,0.0,2503.0,100.0
26.97,0.0,0.0,0.0,0.0,0.0,0.0,2512.0,100.0
26.97,0.0,0.0,0.0,0.0,0.0,0.0,2524.0,100.0
27.03,0.0,0.0,0.0,0.0,0.0,0.0,2509.0,100.0
26.99,0.0,0.0,0.0,0.0,0.0,0.0,2517.0,100.0
26.99,0.0,0.0,0.0,0.0,0.0,0.0,2527.0,100.0
26.99,0.0,0.0,0.0,0.0,0.0,0.0,2522.0,100.0
26.99,0.0,0.0,0.0,0.0,0.0,0.0,2518.0,100.0
26.97,0.0,0.0,0.0,0.0,0.0,0.0,2530.0,100.0
27.03,0.0,0.0,0.0,90.0,0.0,0.0,2523.0,100.0
27.03,0.0,0.0,0.0,0.0,0.0,0.0,2472.0,100.0
26.97,0.0,47.0,0.0,192.0,0.0,0.0,2453.0,100.0
26.97,0.0,11.0,0.0,0.0,0.0,0.0,2479.0,100.0
26.97,0.0,0.0,0.0,0.0,0.0,0.0,2483.0,100.0
26.91,0.0,0.0,0.0,0.0,0.0,0.0,2480.0,100.0
26.99,0.0,0.0,0.0,0.0,0.0,0.0,2494.0,100.0
26.99,0.0,0.0,0.0,0.0,0.0,0.0,2501.0,100.0
26.97,0.0,0.0,0.0,0.0,0.0,0.0,2496.0,100.0
26.91,0.0,0.0,0.0,0.0,0.0,0.0,2499.0,100.0
26.93,0.0,0.0,0.0,0.0,0.0,0.0,2499.0,100.0
26.97,0.0,0.0,0.0,0.0,0.0,0.0,2508.0,100.0
26.99,0.0,0.0,0.0,0.0,0.0,0.0,2511.0,100.0
26.99,0.0,86.0,0.0,0.0,0.0,0.0,2522.0,100.0
27.05,0.0,0.0,0.0,0.0,0.0,0.0,2512.0,100.0
26.99,0.0,0.0,0.0,0.0,0.0,0.0,2520.0,100.0
26.99,0.0,0.0,0.0,0.0,0.0,0.0,2515.0,100.0
27.05,0.0,0.0,0.0,0.0,0.0,0.0,2511.0,100.0
27.03,0.0,0.0,0.0,0.0,0.0,0.0,2516.0,100.0
26.97,0.0,0.0,0.0,0.0,0.0,0.0,2521.0,100.0
26.99,0.0,0.0,0.0,0.0,0.0,0.0,2520.0,100.0
27.05,0.0,0.0,0.0,0.0,0.0,0.0,2519.0,100.0
26.99,0.0,0.0,0.0,0.0,0.0,0.0,2520.0,100.0
26.97,0.0,0.0,0.0,0.0,0.0,0.0,2513.0,100.0
26.91,0.0,0.0,0.0,0.0,0.0,0.0,2517.0,100.0
26.87,0.0,0.0,0.0,0.0,0.0,0.0,2519.0,100.0
26.79,0.0,0.0,0.0,0.0,0.0,0.0,2518.0,100.0
26.91,0.0,0.0,0.0,0.0,0.0,0.0,2532.0,100.0
26.87,0.0,0.0,0.0,0.0,0.0,0.0,2520.0,100.0
26.93,0.0,0.0,0.0,0.0,0.0,0.0,2530.0,100.0
26.93,0.0,0.0,0.0,0.0,0.0,0.0,2534.0,100.0
26.97,0.0,0.0,0.0,0.0,0.0,0.0,2540.0,100.0
26.91,0.0,0.0,0.0,0.0,0.0,0.0,2529.0,15.0
26.93,0.0,0.0,0.0,0.0,0.0,0.0,0.0,15.0
26.59,0.0,0.0,0.0,0.0,0.0,0.0,0.0,15.0
26.59,0.0,0.0,0.0,0.0,0.0,0.0,0.0,15.0
26.49,0.0,0.0,0.0,0.0,0.0,0.0,0.0,15.0
26.59,0.0,0.0,0.0,0.0,0.0,0.0,0.0,15.0
26.65,0.0,0.0,0.0,0.0,0.0,0.0,0.0,15.0
26.87,0.0,0.0,0.0,0.0,0.0,0.0,0.0,15.0
26.91,0.0,0.0,0.0,0.0,0.0,0.0,0.0,15.0
27.03,0.0,0.0,0.0,0.0,0.0,0.0,0.0,15.0
26.91,0.0,0.0,0.0,0.0,0.0,0.0,0.0,15.0
26.91,0.0,0.0,0.0,0.0,0.0,0.0,0.0,15.0
26.99,0.0,0.0,0.0,0.0,0.0,0.0,0.0,15.0
26.67,0.0,0.0,0.0,0.0,0.0,0.0,0.0,15.0
26.49,0.0,0.0,0.0,0.0,0.0,0.0,0.0,15.0
26.53,0.0,0.0,0.0,0.0,0.0,0.0,0.0,15.0
26.53,0.0,0.0,0.0,0.0,0.0,0.0,0.0,15.0
26.55,0.0,0.0,0.0,0.0,0.0,0.0,0.0,15.0
26.55,0.0,0.0,0.0,0.0,0.0,0.0,0.0,15.0
26.71,0.0,0.0,0.0,0.0,0.0,0.0,0.0,15.0
26.73,0.0,0.0,0.0,0.0,0.0,0.0,0.0,15.0
26.71,0.0,0.0,0.0,0.0,0.0,0.0,0.0,15.0
26.71,0.0,0.0,0.0,0.0,0.0,0.0,0.0,15.0
26.65,0.0,0.0,0.0,384.0,0.0,0.0,0.0,15.0
26.67,0.0,0.0,0.0,0.0,0.0,0.0,0.0,15.0
26.67,0.0,0.0,0.0,0.0,0.0,0.0,0.0,15.0
26.71,0.0,0.0,0.0,0.0,0.0,0.0,0.0,15.0
26.67,0.0,0.0,0.0,0.0,0.0,0.0,0.0,15.0
26.65,0.0,0.0,0.0,0.0,0.0,0.0,0.0,15.0
26.65,0.0,0.0,0.0,0.0,0.0,0.0,0.0,15.0
26.59,0.0,0.0,0.0,0.0,0.0,0.0,0.0,15.0
26.61,0.0,0.0,0.0,0.0,0.0,0.0,0.0,15.0
26.65,0.0,0.0,0.0,0.0,0.0,0.0,0.0,15.0
26.65,0.0,0.0,0.0,0.0,0.0,0.0,0.0,15.0
26.71,0.0,0.0,0.0,0.0,0.0,0.0,0.0,15.0
26.67,0.0,0.0,0.0,0.0,0.0,0.0,0.0,15.0
26.71,0.0,0.0,0.0,0.0,0.0,0.0,0.0,15.0
26.77,0.0,0.0,0.0,0.0,0.0,0.0,0.0,15.0
26.73,0.0,0.0,0.0,0.0,0.0,0.0,0.0,15.0
26.67,0.0,0.0,0.0,0.0,0.0,0.0,0.0,15.0
26.77,0.0,0.0,0.0,0.0,0.0,0.0,0.0,15.0
26.85,0.0,0.0,0.0,0.0,0.0,0.0,0.0,15.0
26.87,0.0,0.0,0.0,0.0,0.0,0.0,0.0,15.0
26.85,0.0,0.0,0.0,0.0,0.0,0.0,0.0,15.0
26.97,0.0,0.0,0.0,0.0,0.0,0.0,0.0,15.0
27.03,0.0,0.0,0.0,0.0,0.0,0.0,0.0,15.0
27.15,0.0,0.0,0.0,0.0,0.0,0.0,0.0,15.0
30.37,0.0,0.0,0.0,0.0,0.0,0.0,0.0,15.0
39.51,0.0,0.0,0.0,0.0,0.0,0.0,0.0,15.0
40.03,0.0,0.0,0.0,0.0,0.0,0.0,0.0,15.0
40.67,0.0,0.0,0.0,0.0,0.0,0.0,0.0,17.0
40.67,0.0,0.0,0.0,0.0,0.0,0.0,0.0,25.0
41.01,0.0,0.0,0.0,0.0,0.0,0.0,0.0,34.0
41.11,0.0,0.0,0.0,0.0,0.0,0.0,0.0,42.0
40.91,0.0,0.0,0.0,0.0,0.0,0.0,0.0,52.0
40.75,0.0,0.0,0.0,0.0,0.0,0.0,41.0,62.0
40.47,0.0,451.0,0.0,0.0,688.0,0.0,2515.0,71.0
40.21,0.0,666.0,0.0,0.0,798.0,0.0,2899.0,83.0
40.13,0.0,715.0,0.0,0.0,631.0,0.0,2924.0,93.0
40.09,0.0,744.0,0.0,0.0,621.0,0.0,2972.0,100.0
40.07,0.0,762.0,0.0,0.0,624.0,0.0,3015.0,100.0
39.99,0.0,751.0,0.0,0.0,646.0,0.0,3032.0,100.0
40.07,0.0,755.0,0.0,0.0,611.0,0.0,3038.0,100.0
39.99,0.0,756.0,0.0,0.0,620.0,0.0,3063.0,100.0
40.09,0.0,752.0,0.0,0.0,531.0,0.0,3037.0,100.0
40.09,0.0,747.0,0.0,0.0,594.0,0.0,3037.0,100.0
40.09,0.0,0.0,0.0,0.0,0.0,0.0,2440.0,100.0
40.19,0.0,0.0,0.0,0.0,0.0,0.0,795.0,100.0
40.27,0.0,0.0,0.0,0.0,0.0,0.0,864.0,100.0
40.27,0.0,0.0,0.0,0.0,0.0,0.0,907.0,100.0
40.25,0.0,0.0,0.0,0.0,0.0,0.0,748.0,100.0
40.19,0.0,0.0,0.0,0.0,0.0,0.0,794.0,100.0
40.25,0.0,0.0,0.0,0.0,0.0,0.0,826.0,100.0
40.31,0.0,0.0,0.0,0.0,0.0,0.0,841.0,100.0
40.27,0.0,0.0,0.0,0.0,0.0,0.0,847.0,100.0
40.27,0.0,0.0,0.0,0.0,0.0,0.0,858.0,100.0
40.29,0.0,0.0,0.0,0.0,0.0,0.0,828.0,100.0
40.27,0.0,0.0,0.0,0.0,0.0,0.0,920.0,100.0
40.31,0.0,0.0,0.0,0.0,0.0,0.0,875.0,100.0
40.37,0.0,0.0,0.0,0.0,0.0,0.0,981.0,100.0
40.29,0.0,0.0,0.0,0.0,0.0,0.0,1145.0,100.0
40.29,0.0,0.0,0.0,0.0,0.0,0.0,1207.0,100.0
40.21,0.0,0.0,0.0,0.0,0.0,0.0,1364.0,100.0
40.25,0.0,0.0,0.0,0.0,0.0,0.0,1418.0,100.0
40.25,0.0,0.0,0.0,0.0,0.0,0.0,1454.0,100.0
40.29,0.0,0.0,0.0,0.0,0.0,0.0,1479.0,100.0
40.29,0.0,0.0,0.0,0.0,0.0,0.0,1479.0,100.0
40.43,0.0,0.0,0.0,0.0,0.0,0.0,1474.0,100.0
40.45,0.0,0.0,0.0,0.0,0.0,0.0,1489.0,100.0
40.53,0.0,0.0,0.0,0.0,0.0,0.0,1514.0,100.0
40.45,0.0,0.0,0.0,0.0,0.0,0.0,1511.0,100.0
40.37,0.0,0.0,0.0,0.0,0.0,0.0,1522.0,100.0
40.47,0.0,0.0,0.0,0.0,0.0,0.0,1531.0,100.0
40.53,0.0,0.0,0.0,0.0,0.0,0.0,1534.0,100.0
40.53,0.0,0.0,0.0,0.0,0.0,0.0,1531.0,100.0
40.45,0.0,0.0,0.0,0.0,0.0,0.0,1536.0,100.0
40.51,0.0,0.0,0.0,0.0,0.0,0.0,1546.0,100.0
40.51,0.0,0.0,0.0,0.0,0.0,0.0,1549.0,100.0
40.47,0.0,0.0,0.0,0.0,0.0,0.0,1551.0,100.0
40.53,0.0,0.0,0.0,0.0,0.0,0.0,1556.0,100.0
40.53,0.0,0.0,0.0,0.0,0.0,0.0,1550.0,100.0
40.51,0.0,0.0,0.0,0.0,0.0,0.0,1554.0,100.0
40.45,0.0,0.0,0.0,0.0,0.0,0.0,1556.0,100.0
40.51,0.0,0.0,0.0,0.0,0.0,0.0,1564.0,100.0
40.45,0.0,0.0,0.0,0.0,0.0,0.0,1564.0,100.0
40.47,0.0,0.0,0.0,0.0,0.0,0.0,1559.0,100.0
40.53,0.0,0.0,0.0,0.0,0.0,0.0,1562.0,100.0
40.63,0.0,0.0,0.0,0.0,0.0,0.0,1577.0,100.0
40.61,0.0,0.0,0.0,0.0,0.0,0.0,1569.0,100.0
40.63,0.0,0.0,0.0,0.0,0.0,0.0,1572.0,100.0
40.55,0.0,0.0,0.0,0.0,0.0,0.0,1572.0,100.0
40.57,0.0,0.0,0.0,0.0,0.0,0.0,1579.0,100.0
40.65,0.0,0.0,0.0,0.0,0.0,0.0,1584.0,100.0
40.67,0.0,0.0,0.0,0.0,0.0,0.0,1575.0,100.0
40.73,0.0,0.0,0.0,0.0,0.0,0.0,1585.0,100.0
40.67,0.0,0.0,0.0,0.0,0.0,0.0,1580.0,100.0
40.67,0.0,0.0,0.0,0.0,0.0,0.0,1581.0,100.0
40.57,0.0,0.0,0.0,0.0,0.0,0.0,1579.0,100.0
40.65,0.0,0.0,0.0,0.0,0.0,0.0,1587.0,100.0
40.61,0.0,0.0,0.0,0.0,0.0,0.0,1590.0,100.0
40.51,0.0,0.0,0.0,0.0,0.0,0.0,1593.0,100.0
40.43,0.0,72.0,0.0,0.0,0.0,0.0,1589.0,100.0
40.45,0.0,0.0,0.0,0.0,0.0,0.0,1585.0,100.0
40.45,0.0,0.0,0.0,0.0,0.0,0.0,1587.0,100.0
40.47,0.0,0.0,0.0,0.0,0.0,0.0,1587.0,100.0
40.37,0.0,0.0,0.0,0.0,0.0,0.0,1595.0,100.0
40.35,0.0,0.0,0.0,0.0,0.0,0.0,1588.0,100.0
40.43,0.0,0.0,0.0,0.0,0.0,0.0,1590.0,100.0
40.39,0.0,0.0,0.0,0.0,0.0,0.0,1594.0,100.0
40.37,0.0,0.0,0.0,0.0,0.0,0.0,1603.0,100.0
40.27,0.0,0.0,0.0,0.0,0.0,0.0,1611.0,100.0
40.31,0.0,0.0,0.0,0.0,0.0,0.0,1604.0,100.0
40.25,0.0,0.0,0.0,0.0,0.0,0.0,1600.0,100.0
40.19,0.0,0.0,0.0,0.0,0.0,0.0,1603.0,100.0
40.11,0.0,0.0,0.0,0.0,0.0,0.0,1607.0,100.0
40.13,0.0,0.0,0.0,0.0,0.0,0.0,1604.0,100.0
40.17,0.0,0.0,0.0,0.0,0.0,0.0,1605.0,100.0
40.17,0.0,0.0,0.0,0.0,0.0,0.0,1604.0,100.0
40.19,0.0,0.0,0.0,0.0,0.0,0.0,1603.0,100.0
40.17,0.0,0.0,0.0,0.0,0.0,0.0,1598.0,100.0
40.25,0.0,0.0,0.0,0.0,0.0,0.0,1607.0,100.0
40.31,0.0,0.0,0.0,0.0,0.0,0.0,1603.0,100.0
40.25,0.0,0.0,0.0,0.0,0.0,0.0,1607.0,100.0
40.29,0.0,0.0,0.0,0.0,0.0,0.0,1510.0,15.0
40.31,0.0,0.0,0.0,0.0,0.0,0.0,1082.0,15.0
28.31,0.0,0.0,0.0,0.0,0.0,0.0,0.0,17.0
27.59,0.0,0.0,0.0,0.0,0.0,0.0,0.0,17.0
27.43,0.0,0.0,0.0,0.0,0.0,0.0,0.0,17.0
27.43,0.0,0.0,0.0,0.0,0.0,0.0,0.0,17.0
27.43,0.0,0.0,0.0,0.0,0.0,0.0,0.0,17.0
27.47,0.0,0.0,0.0,0.0,0.0,0.0,0.0,17.0
27.43,0.0,0.0,0.0,0.0,0.0,0.0,0.0,17.0
27.53,0.0,0.0,0.0,0.0,0.0,0.0,0.0,17.0
27.41,0.0,0.0,0.0,0.0,0.0,0.0,0.0,17.0
27.47,0.0,0.0,0.0,0.0,0.0,0.0,0.0,17.0
27.37,0.0,0.0,0.0,0.0,0.0,0.0,0.0,17.0
27.43,0.0,0.0,0.0,0.0,0.0,0.0,0.0,17.0
27.41,0.0,0.0,0.0,0.0,0.0,0.0,0.0,17.0
27.37,0.0,0.0,0.0,0.0,0.0,0.0,0.0,17.0
27.43,0.0,0.0,0.0,0.0,0.0,0.0,0.0,17.0
26.93,0.0,0.0,0.0,0.0,0.0,0.0,0.0,17.0
26.93,0.0,0.0,0.0,0.0,0.0,0.0,0.0,17.0
26.99,0.0,0.0,0.0,0.0,0.0,0.0,0.0,17.0
26.85,0.0,0.0,0.0,0.0,0.0,0.0,0.0,17.0
26.93,0.0,0.0,0.0,0.0,0.0,0.0,0.0,17.0
27.03,0.0,0.0,0.0,0.0,0.0,0.0,0.0,17.0
26.91,0.0,0.0,0.0,0.0,0.0,0.0,0.0,17.0
26.99,0.0,0.0,0.0,0.0,0.0,0.0,0.0,17.0
26.93,0.0,0.0,0.0,0.0,0.0,0.0,0.0,17.0
26.97,0.0,0.0,0.0,0.0,0.0,0.0,0.0,17.0
27.05,0.0,0.0,0.0,0.0,0.0,0.0,0.0,17.0
27.03,0.0,0.0,0.0,0.0,0.0,0.0,0.0,17.0
27.03,0.0,0.0,0.0,0.0,0.0,0.0,0.0,17.0
27.05,0.0,0.0,0.0,0.0,0.0,0.0,0.0,17.0
26.97,0.0,0.0,0.0,0.0,0.0,0.0,0.0,17.0
27.05,0.0,0.0,0.0,0.0,0.0,0.0,0.0,17.0
26.97,0.0,0.0,0.0,0.0,0.0,0.0,0.0,17.0
27.03,0.0,0.0,0.0,0.0,0.0,0.0,0.0,17.0
27.03,0.0,0.0,0.0,0.0,0.0,0.0,0.0,17.0
27.05,0.0,0.0,0.0,0.0,0.0,0.0,0.0,17.0
27.05,0.0,0.0,0.0,0.0,0.0,0.0,0.0,17.0
27.05,0.0,0.0,0.0,0.0,0.0,0.0,0.0,17.0
26.97,0.0,0.0,0.0,0.0,0.0,0.0,0.0,17.0
26.93,0.0,0.0,0.0,0.0,0.0,0.0,0.0,17.0
26.99,0.0,0.0,0.0,0.0,0.0,0.0,0.0,17.0
26.97,0.0,0.0,0.0,0.0,0.0,0.0,0.0,15.0
26.99,0.0,0.0,0.0,0.0,0.0,0.0,0.0,15.0
26.99,0.0,0.0,0.0,0.0,0.0,0.0,0.0,15.0
26.97,0.0,0.0,0.0,0.0,0.0,0.0,0.0,15.0
27.05,0.0,0.0,0.0,0.0,0.0,0.0,0.0,15.0
26.93,0.0,0.0,0.0,0.0,0.0,0.0,0.0,15.0
26.79,0.0,0.0,0.0,192.0,0.0,0.0,0.0,15.0
27.23,0.0,0.0,0.0,0.0,0.0,0.0,0.0,15.0
27.41,0.0,0.0,0.0,0.0,0.0,0.0,0.0,16.0
27.35,0.0,0.0,0.0,0.0,0.0,0.0,0.0,25.0
27.41,0.0,0.0,0.0,0.0,0.0,0.0,0.0,35.0
27.49,0.0,0.0,0.0,0.0,0.0,0.0,0.0,45.0
27.47,0.0,0.0,0.0,0.0,0.0,0.0,0.0,54.0
27.47,0.0,0.0,0.0,0.0,0.0,0.0,0.0,64.0
27.47,0.0,0.0,0.0,0.0,0.0,0.0,0.0,73.0
27.41,0.0,0.0,0.0,0.0,0.0,0.0,1886.0,83.0
27.37,0.0,0.0,0.0,0.0,0.0,0.0,2291.0,93.0
27.37,0.0,0.0,0.0,0.0,0.0,0.0,2398.0,100.0
27.35,0.0,0.0,0.0,0.0,0.0,0.0,2423.0,100.0
27.31,0.0,0.0,0.0,0.0,0.0,0.0,2264.0,100.0
27.35,0.0,0.0,0.0,0.0,0.0,0.0,2262.0,100.0
27.35,0.0,0.0,0.0,0.0,0.0,0.0,2290.0,100.0
27.31,0.0,0.0,0.0,0.0,0.0,0.0,2184.0,100.0
27.31,0.0,0.0,0.0,0.0,0.0,0.0,2134.0,100.0
27.31,0.0,0.0,0.0,0.0,0.0,0.0,2137.0,100.0
27.35,0.0,0.0,0.0,0.0,0.0,0.0,2271.0,100.0
27.41,0.0,0.0,0.0,0.0,0.0,0.0,2237.0,100.0
27.29,0.0,0.0,0.0,0.0,0.0,0.0,2245.0,100.0
27.25,0.0,0.0,0.0,0.0,0.0,0.0,2247.0,100.0
27.29,0.0,0.0,0.0,0.0,0.0,0.0,2247.0,100.0
27.29,0.0,0.0,0.0,0.0,0.0,0.0,2245.0,100.0
27.37,0.0,0.0,0.0,0.0,0.0,0.0,2250.0,100.0
27.25,0.0,0.0,0.0,0.0,0.0,0.0,2264.0,100.0
27.25,0.0,0.0,0.0,0.0,0.0,0.0,2258.0,100.0
27.17,0.0,0.0,0.0,0.0,0.0,0.0,2269.0,100.0
27.25,0.0,0.0,0.0,0.0,0.0,0.0,2265.0,100.0
27.23,0.0,0.0,0.0,0.0,0.0,0.0,2277.0,100.0
27.23,0.0,0.0,0.0,0.0,0.0,0.0,2284.0,100.0
27.21,0.0,0.0,0.0,0.0,0.0,0.0,2291.0,100.0
27.21,0.0,0.0,0.0,0.0,0.0,0.0,2290.0,100.0
27.23,0.0,0.0,0.0,0.0,0.0,0.0,2298.0,100.0
27.25,0.0,0.0,0.0,0.0,0.0,0.0,2305.0,100.0
27.21,0.0,0.0,0.0,0.0,0.0,0.0,2309.0,100.0
27.35,0.0,0.0,0.0,0.0,0.0,0.0,2314.0,100.0
27.59,0.0,0.0,0.0,0.0,0.0,0.0,2320.0,100.0
27.49,0.0,0.0,0.0,0.0,0.0,0.0,2319.0,100.0
27.49,0.0,0.0,0.0,0.0,0.0,0.0,2325.0,100.0
27.49,0.0,0.0,0.0,0.0,0.0,0.0,2323.0,100.0
27.53,0.0,0.0,0.0,0.0,0.0,0.0,2322.0,100.0
27.49,0.0,0.0,0.0,0.0,0.0,0.0,2322.0,100.0
27.49,0.0,0.0,0.0,0.0,0.0,0.0,2325.0,100.0
27.53,0.0,0.0,0.0,0.0,0.0,0.0,2330.0,100.0
27.53,0.0,0.0,0.0,0.0,0.0,0.0,2332.0,100.0
27.53,0.0,0.0,0.0,0.0,0.0,0.0,2331.0,100.0
27.43,0.0,0.0,0.0,0.0,0.0,0.0,2328.0,100.0
27.47,0.0,0.0,0.0,0.0,0.0,0.0,2337.0,100.0
27.43,0.0,0.0,0.0,0.0,0.0,0.0,2327.0,100.0
27.41,0.0,0.0,0.0,0.0,0.0,0.0,2337.0,100.0
27.41,0.0,0.0,0.0,0.0,0.0,0.0,2338.0,100.0
27.41,0.0,0.0,0.0,0.0,0.0,0.0,2339.0,100.0
27.43,0.0,0.0,0.0,0.0,0.0,0.0,2335.0,100.0
27.41,0.0,0.0,0.0,0.0,0.0,0.0,2340.0,100.0
27.41,0.0,0.0,0.0,0.0,0.0,0.0,2342.0,100.0
27.37,0.0,0.0,0.0,0.0,0.0,0.0,2336.0,100.0
27.43,0.0,0.0,0.0,0.0,0.0,0.0,2337.0,100.0
27.37,0.0,0.0,0.0,0.0,0.0,0.0,2338.0,100.0
27.37,0.0,0.0,0.0,0.0,0.0,0.0,2336.0,100.0
27.41,0.0,0.0,0.0,0.0,0.0,0.0,2344.0,100.0
27.37,0.0,0.0,0.0,0.0,0.0,0.0,2342.0,100.0
27.43,0.0,0.0,0.0,0.0,0.0,0.0,2345.0,100.0
27.43,0.0,0.0,0.0,0.0,0.0,0.0,2347.0,100.0
27.41,0.0,0.0,0.0,0.0,0.0,0.0,2347.0,100.0
27.31,0.0,0.0,0.0,0.0,0.0,0.0,2350.0,100.0
27.35,0.0,0.0,0.0,0.0,0.0,0.0,2356.0,100.0
27.35,0.0,0.0,0.0,0.0,0.0,0.0,2355.0,100.0
27.41,0.0,0.0,0.0,0.0,0.0,0.0,2347.0,100.0
27.43,0.0,0.0,0.0,0.0,0.0,0.0,2344.0,100.0
27.43,0.0,0.0,0.0,0.0,0.0,0.0,2342.0,100.0
27.37,0.0,0.0,0.0,0.0,0.0,0.0,2346.0,100.0
27.35,0.0,0.0,0.0,0.0,0.0,0.0,2342.0,100.0
27.41,0.0,0.0,0.0,0.0,0.0,0.0,2347.0,100.0
27.41,0.0,0.0,0.0,0.0,0.0,0.0,2354.0,100.0
27.41,0.0,0.0,0.0,0.0,0.0,0.0,2355.0,100.0
27.41,0.0,0.0,0.0,0.0,0.0,0.0,2353.0,100.0
27.37,0.0,0.0,0.0,0.0,0.0,0.0,2351.0,100.0
27.43,0.0,0.0,0.0,0.0,0.0,0.0,2356.0,100.0
27.41,0.0,0.0,0.0,0.0,0.0,0.0,2353.0,100.0
27.41,0.0,0.0,0.0,0.0,0.0,0.0,2349.0,100.0
27.41,0.0,0.0,0.0,0.0,0.0,0.0,2355.0,100.0
27.41,0.0,0.0,0.0,0.0,0.0,0.0,2363.0,100.0
27.35,0.0,0.0,0.0,0.0,0.0,0.0,2353.0,100.0
27.43,0.0,0.0,0.0,0.0,0.0,0.0,2356.0,100.0
27.37,0.0,0.0,0.0,0.0,0.0,0.0,2357.0,100.0
27.37,0.0,0.0,0.0,0.0,0.0,0.0,2360.0,100.0
27.37,0.0,0.0,0.0,0.0,0.0,0.0,2360.0,100.0
27.37,0.0,0.0,0.0,0.0,0.0,0.0,2370.0,100.0
27.41,0.0,0.0,0.0,0.0,0.0,0.0,2362.0,100.0
27.43,0.0,0.0,0.0,0.0,0.0,0.0,2371.0,100.0
27.43,0.0,0.0,0.0,0.0,0.0,0.0,2367.0,100.0
27.41,0.0,0.0,0.0,0.0,0.0,0.0,2361.0,100.0
27.37,0.0,0.0,0.0,0.0,0.0,0.0,2366.0,100.0
27.43,0.0,0.0,0.0,0.0,0.0,0.0,2370.0,100.0
27.37,0.0,0.0,0.0,0.0,0.0,0.0,2371.0,100.0
27.35,0.0,0.0,0.0,0.0,0.0,0.0,13.0,15.0
26.93,0.0,0.0,0.0,0.0,0.0,0.0,0.0,15.0
26.79,0.0,0.0,0.0,0.0,0.0,0.0,0.0,15.0
26.77,0.0,0.0,0.0,0.0,0.0,72.0,0.0,15.0
26.71,0.0,0.0,0.0,0.0,0.0,0.0,0.0,15.0
26.77,0.0,0.0,0.0,0.0,0.0,0.0,0.0,15.0
26.85,0.0,0.0,0.0,0.0,0.0,0.0,0.0,15.0
26.87,0.0,0.0,0.0,0.0,0.0,0.0,0.0,15.0
27.17,0.0,0.0,0.0,0.0,0.0,0.0,0.0,15.0
27.31,0.0,0.0,0.0,0.0,0.0,0.0,0.0,15.0
27.21,0.0,0.0,0.0,0.0,0.0,0.0,0.0,15.0
26.99,0.0,0.0,0.0,0.0,0.0,0.0,0.0,15.0
26.97,0.0,0.0,0.0,0.0,0.0,0.0,0.0,15.0
26.91,0.0,0.0,0.0,0.0,0.0,0.0,0.0,15.0
26.85,0.0,0.0,0.0,0.0,0.0,0.0,0.0,15.0
26.97,0.0,0.0,0.0,0.0,0.0,0.0,0.0,15.0
26.85,0.0,0.0,0.0,0.0,0.0,0.0,0.0,15.0
26.85,0.0,0.0,0.0,0.0,0.0,0.0,0.0,15.0
26.93,0.0,0.0,0.0,0.0,0.0,0.0,0.0,15.0
26.93,0.0,0.0,0.0,0.0,0.0,0.0,0.0,15.0
26.85,0.0,0.0,0.0,184.0,0.0,0.0,0.0,15.0
26.93,0.0,0.0,0.0,0.0,0.0,0.0,0.0,15.0
26.91,0.0,0.0,0.0,0.0,0.0,0.0,0.0,15.0
26.93,0.0,0.0,0.0,0.0,0.0,0.0,0.0,15.0
26.93,0.0,0.0,0.0,0.0,0.0,0.0,0.0,15.0
