tempMLX,FSR_A1,FSR_A2,FSR_A3,FSR_B1,FSR_B2,FSR_B3,FSR_C,porcAper
0.0,0.0,0.0,0.0,0.0,0.0,0.0,0.0,15.0
0.0,0.0,0.0,0.0,0.0,0.0,0.0,0.0,15.0
26.53,0.0,0.0,0.0,0.0,0.0,0.0,0.0,15.0
26.49,0.0,0.0,0.0,0.0,0.0,0.0,0.0,15.0
26.47,0.0,0.0,0.0,0.0,0.0,0.0,0.0,15.0
26.49,0.0,0.0,0.0,0.0,0.0,0.0,0.0,15.0
26.47,0.0,0.0,0.0,0.0,0.0,0.0,0.0,15.0
26.55,0.0,0.0,0.0,0.0,0.0,0.0,0.0,15.0
26.49,0.0,0.0,0.0,0.0,0.0,0.0,0.0,15.0
26.43,0.0,0.0,0.0,0.0,0.0,0.0,0.0,15.0
26.43,0.0,0.0,0.0,0.0,0.0,0.0,0.0,15.0
26.47,0.0,0.0,0.0,0.0,0.0,0.0,0.0,15.0
26.49,0.0,0.0,0.0,0.0,0.0,0.0,0.0,15.0
26.47,0.0,0.0,0.0,0.0,0.0,0.0,0.0,15.0
26.41,0.0,0.0,0.0,0.0,0.0,0.0,0.0,15.0
26.43,0.0,0.0,0.0,0.0,0.0,0.0,0.0,15.0
26.47,0.0,0.0,0.0,0.0,0.0,0.0,0.0,15.0
26.49,0.0,0.0,0.0,0.0,0.0,0.0,0.0,15.0
26.49,0.0,0.0,0.0,0.0,0.0,0.0,0.0,15.0
26.41,0.0,0.0,0.0,0.0,0.0,0.0,0.0,15.0
26.43,0.0,0.0,0.0,0.0,0.0,0.0,0.0,15.0
26.35,0.0,0.0,0.0,0.0,0.0,0.0,0.0,15.0
26.35,0.0,0.0,0.0,0.0,0.0,0.0,0.0,15.0
26.37,0.0,0.0,0.0,0.0,0.0,0.0,0.0,15.0
26.41,0.0,0.0,0.0,0.0,0.0,0.0,0.0,15.0
26.37,0.0,0.0,0.0,0.0,0.0,0.0,0.0,15.0
26.41,0.0,0.0,0.0,0.0,0.0,0.0,0.0,15.0
26.35,0.0,0.0,0.0,0.0,0.0,0.0,0.0,15.0
26.41,0.0,0.0,0.0,0.0,0.0,0.0,0.0,15.0
26.37,0.0,0.0,0.0,0.0,0.0,0.0,0.0,15.0
26.37,0.0,0.0,0.0,0.0,0.0,0.0,0.0,15.0
26.41,0.0,0.0,0.0,0.0,0.0,0.0,0.0,15.0
26.37,0.0,0.0,0.0,0.0,0.0,0.0,0.0,15.0
26.43,0.0,0.0,0.0,0.0,0.0,0.0,0.0,15.0
26.37,0.0,0.0,0.0,0.0,0.0,0.0,0.0,15.0
26.41,0.0,0.0,0.0,0.0,0.0,0.0,0.0,15.0
26.43,0.0,0.0,0.0,0.0,0.0,0.0,0.0,15.0
26.37,0.0,0.0,0.0,0.0,0.0,0.0,0.0,15.0
26.37,0.0,0.0,0.0,0.0,0.0,0.0,0.0,15.0
26.41,0.0,0.0,0.0,0.0,0.0,0.0,0.0,15.0
26.37,0.0,0.0,0.0,0.0,0.0,0.0,0.0,15.0
26.37,0.0,0.0,0.0,0.0,0.0,0.0,0.0,15.0
26.37,0.0,0.0,0.0,0.0,0.0,0.0,0.0,15.0
26.41,0.0,0.0,0.0,0.0,0.0,0.0,0.0,15.0
26.37,0.0,0.0,0.0,0.0,0.0,0.0,0.0,15.0
26.41,0.0,0.0,0.0,0.0,0.0,0.0,0.0,15.0
26.41,0.0,0.0,0.0,0.0,0.0,0.0,0.0,15.0
26.47,0.0,0.0,0.0,0.0,0.0,0.0,0.0,15.0
26.43,0.0,0.0,0.0,0.0,0.0,0.0,0.0,15.0
26.37,0.0,0.0,0.0,0.0,0.0,0.0,0.0,15.0
26.35,0.0,0.0,0.0,0.0,0.0,0.0,0.0,15.0
26.41,0.0,0.0,0.0,0.0,0.0,0.0,0.0,15.0
26.43,0.0,0.0,0.0,0.0,0.0,0.0,0.0,15.0
26.43,0.0,0.0,0.0,0.0,0.0,0.0,0.0,15.0
26.49,0.0,0.0,0.0,0.0,0.0,0.0,0.0,15.0
26.47,0.0,0.0,0.0,0.0,0.0,0.0,0.0,15.0
26.37,0.0,0.0,0.0,0.0,0.0,0.0,0.0,15.0
26.37,0.0,0.0,0.0,0.0,0.0,0.0,0.0,15.0
26.37,0.0,0.0,0.0,0.0,0.0,0.0,0.0,15.0
26.37,0.0,0.0,0.0,0.0,0.0,0.0,0.0,15.0
26.35,0.0,0.0,0.0,0.0,0.0,0.0,0.0,15.0
26.41,0.0,0.0,0.0,0.0,0.0,0.0,0.0,15.0
26.37,0.0,0.0,0.0,0.0,0.0,0.0,0.0,15.0
26.37,0.0,0.0,0.0,0.0,0.0,0.0,0.0,15.0
26.37,0.0,0.0,0.0,0.0,0.0,0.0,0.0,15.0
26.41,0.0,0.0,0.0,0.0,0.0,0.0,0.0,15.0
26.41,0.0,0.0,0.0,0.0,0.0,0.0,0.0,15.0
26.37,0.0,0.0,0.0,0.0,0.0,0.0,0.0,15.0
26.29,0.0,0.0,0.0,0.0,0.0,0.0,0.0,15.0
26.37,0.0,0.0,0.0,0.0,0.0,0.0,0.0,15.0
26.35,0.0,0.0,0.0,0.0,0.0,0.0,0.0,15.0
26.37,0.0,0.0,0.0,0.0,0.0,0.0,0.0,15.0
26.35,0.0,0.0,0.0,0.0,0.0,0.0,0.0,15.0
26.41,0.0,0.0,0.0,0.0,0.0,0.0,0.0,15.0
26.35,0.0,0.0,0.0,0.0,0.0,0.0,0.0,15.0
26.41,0.0,0.0,0.0,0.0,0.0,0.0,0.0,15.0
26.31,0.0,0.0,0.0,0.0,0.0,0.0,0.0,15.0
26.29,0.0,0.0,0.0,0.0,0.0,0.0,0.0,15.0
26.29,0.0,0.0,0.0,0.0,0.0,0.0,0.0,15.0
26.37,0.0,0.0,0.0,0.0,0.0,0.0,0.0,15.0
26.31,0.0,0.0,0.0,0.0,0.0,0.0,0.0,15.0
26.37,0.0,0.0,0.0,0.0,0.0,0.0,0.0,15.0
26.37,0.0,0.0,0.0,0.0,0.0,0.0,0.0,15.0
26.41,0.0,0.0,0.0,0.0,0.0,0.0,0.0,15.0
26.49,0.0,0.0,0.0,0.0,0.0,0.0,0.0,15.0
26.41,0.0,0.0,0.0,0.0,0.0,0.0,0.0,15.0
26.43,0.0,0.0,0.0,0.0,0.0,0.0,0.0,15.0
26.41,0.0,0.0,0.0,0.0,0.0,0.0,0.0,15.0
26.37,0.0,0.0,0.0,0.0,0.0,0.0,0.0,15.0
26.41,0.0,0.0,0.0,0.0,0.0,0.0,0.0,15.0
26.35,0.0,0.0,0.0,0.0,0.0,0.0,0.0,15.0
26.37,0.0,0.0,0.0,0.0,0.0,0.0,0.0,15.0
26.47,0.0,0.0,0.0,0.0,0.0,0.0,0.0,15.0
26.31,0.0,0.0,0.0,0.0,0.0,0.0,0.0,15.0
26.35,0.0,0.0,0.0,0.0,0.0,0.0,0.0,15.0
26.41,0.0,0.0,0.0,0.0,0.0,0.0,0.0,15.0
26.37,0.0,0.0,0.0,0.0,0.0,0.0,0.0,15.0
26.37,0.0,0.0,0.0,0.0,0.0,0.0,0.0,15.0
26.37,0.0,0.0,0.0,0.0,0.0,0.0,0.0,15.0
26.35,0.0,0.0,0.0,0.0,0.0,0.0,0.0,15.0
26.29,0.0,0.0,0.0,0.0,0.0,0.0,0.0,15.0
26.37,0.0,0.0,0.0,0.0,0.0,0.0,0.0,15.0
26.35,0.0,0.0,0.0,0.0,0.0,0.0,0.0,15.0
26.41,0.0,0.0,0.0,0.0,0.0,0.0,0.0,15.0
26.41,0.0,0.0,0.0,0.0,0.0,0.0,0.0,15.0
26.35,0.0,0.0,0.0,0.0,0.0,0.0,0.0,15.0
26.37,0.0,0.0,0.0,112.0,0.0,0.0,0.0,15.0
26.37,0.0,0.0,0.0,0.0,0.0,0.0,0.0,15.0
26.43,0.0,0.0,0.0,0.0,0.0,0.0,0.0,15.0
26.41,0.0,0.0,0.0,0.0,0.0,0.0,0.0,15.0
26.43,0.0,0.0,0.0,0.0,0.0,0.0,0.0,15.0
26.47,0.0,0.0,0.0,0.0,0.0,0.0,0.0,15.0
26.47,0.0,0.0,0.0,0.0,0.0,0.0,0.0,15.0
26.41,0.0,0.0,0.0,0.0,0.0,0.0,0.0,15.0
26.31,0.0,0.0,0.0,0.0,0.0,0.0,0.0,15.0
26.37,0.0,0.0,0.0,0.0,0.0,0.0,0.0,15.0
26.31,0.0,0.0,0.0,0.0,0.0,0.0,0.0,15.0
26.29,0.0,0.0,0.0,0.0,0.0,0.0,0.0,15.0
26.37,0.0,0.0,0.0,0.0,0.0,0.0,0.0,15.0
26.37,0.0,0.0,0.0,0.0,0.0,0.0,0.0,15.0
26.31,0.0,0.0,0.0,0.0,0.0,0.0,0.0,15.0
26.41,0.0,0.0,0.0,0.0,36.0,0.0,0.0,15.0
26.43,0.0,0.0,0.0,0.0,0.0,64.0,0.0,15.0
26.31,0.0,0.0,0.0,0.0,0.0,0.0,0.0,15.0
26.37,0.0,0.0,0.0,0.0,0.0,0.0,0.0,15.0
26.31,0.0,0.0,0.0,0.0,0.0,0.0,0.0,15.0
26.27,0.0,0.0,0.0,0.0,0.0,0.0,0.0,15.0
26.27,0.0,0.0,0.0,0.0,0.0,0.0,0.0,15.0
26.37,0.0,0.0,0.0,0.0,0.0,0.0,0.0,15.0
26.41,0.0,0.0,0.0,0.0,0.0,0.0,0.0,15.0
26.41,0.0,0.0,0.0,0.0,0.0,0.0,0.0,15.0
26.43,0.0,0.0,0.0,0.0,0.0,0.0,0.0,15.0
26.43,0.0,0.0,0.0,0.0,0.0,0.0,0.0,15.0
26.35,0.0,0.0,0.0,0.0,0.0,0.0,0.0,15.0
26.31,0.0,0.0,0.0,0.0,0.0,0.0,0.0,15.0
26.35,0.0,0.0,0.0,0.0,0.0,0.0,0.0,15.0
26.31,0.0,0.0,0.0,0.0,0.0,0.0,0.0,15.0
26.27,0.0,0.0,0.0,0.0,0.0,0.0,0.0,15.0
26.41,0.0,0.0,0.0,0.0,0.0,0.0,0.0,15.0
26.37,0.0,0.0,0.0,0.0,0.0,0.0,0.0,15.0
26.43,0.0,0.0,0.0,0.0,0.0,0.0,0.0,15.0
26.99,0.0,0.0,0.0,0.0,0.0,0.0,0.0,15.0
27.29,0.0,0.0,0.0,0.0,0.0,0.0,0.0,15.0
27.53,0.0,0.0,0.0,0.0,0.0,0.0,0.0,15.0
27.63,0.0,0.0,0.0,0.0,0.0,0.0,0.0,15.0
27.61,0.0,0.0,0.0,0.0,0.0,0.0,0.0,15.0
27.63,0.0,0.0,0.0,0.0,0.0,0.0,0.0,15.0
27.69,0.0,0.0,0.0,0.0,0.0,0.0,0.0,15.0
27.73,0.0,0.0,0.0,0.0,0.0,0.0,0.0,15.0
27.75,0.0,0.0,0.0,0.0,0.0,0.0,0.0,15.0
27.75,0.0,0.0,0.0,0.0,0.0,0.0,0.0,18.0
27.69,0.0,0.0,0.0,0.0,0.0,0.0,0.0,27.0
27.67,0.0,0.0,0.0,0.0,0.0,0.0,0.0,36.0
27.61,0.0,0.0,0.0,0.0,0.0,0.0,0.0,46.0
27.59,0.0,0.0,0.0,0.0,0.0,0.0,0.0,56.0
27.59,0.0,0.0,0.0,0.0,0.0,0.0,0.0,66.0
27.37,0.0,0.0,0.0,0.0,0.0,0.0,0.0,76.0
27.23,0.0,0.0,0.0,0.0,0.0,0.0,0.0,85.0
27.25,0.0,0.0,0.0,0.0,0.0,0.0,7.0,94.0
27.23,0.0,0.0,0.0,0.0,0.0,0.0,10.0,100.0
27.23,0.0,0.0,0.0,0.0,0.0,0.0,23.0,100.0
27.21,0.0,0.0,0.0,0.0,0.0,0.0,24.0,100.0
27.25,0.0,0.0,0.0,0.0,0.0,0.0,29.0,100.0
27.17,0.0,0.0,0.0,0.0,0.0,0.0,22.0,100.0
27.17,0.0,0.0,0.0,0.0,0.0,0.0,23.0,100.0
27.21,0.0,0.0,0.0,0.0,0.0,0.0,18.0,100.0
27.21,0.0,0.0,0.0,0.0,0.0,0.0,18.0,100.0
27.17,0.0,0.0,0.0,0.0,0.0,0.0,18.0,100.0
27.17,0.0,0.0,0.0,0.0,0.0,0.0,23.0,100.0
27.17,0.0,0.0,0.0,0.0,0.0,0.0,20.0,100.0
27.15,0.0,0.0,0.0,0.0,0.0,0.0,29.0,100.0
27.17,0.0,0.0,0.0,0.0,0.0,0.0,24.0,100.0
27.11,0.0,0.0,0.0,0.0,0.0,0.0,29.0,100.0
27.21,0.0,0.0,0.0,0.0,0.0,0.0,23.0,100.0
27.09,0.0,0.0,0.0,0.0,0.0,0.0,20.0,100.0
27.15,0.0,0.0,340.0,0.0,0.0,0.0,26.0,100.0
27.23,0.0,0.0,0.0,0.0,0.0,0.0,21.0,100.0
27.17,0.0,0.0,0.0,0.0,0.0,0.0,26.0,100.0
27.21,0.0,0.0,0.0,0.0,0.0,0.0,20.0,100.0
27.17,0.0,0.0,0.0,0.0,0.0,0.0,20.0,100.0
27.15,0.0,0.0,0.0,0.0,0.0,0.0,18.0,100.0
27.23,0.0,0.0,0.0,0.0,0.0,0.0,19.0,100.0
27.21,0.0,0.0,0.0,0.0,0.0,0.0,24.0,100.0
27.21,0.0,0.0,0.0,0.0,0.0,0.0,21.0,100.0
27.05,0.0,0.0,0.0,0.0,0.0,0.0,18.0,100.0
27.05,0.0,0.0,0.0,0.0,0.0,0.0,22.0,100.0
26.97,0.0,0.0,0.0,0.0,0.0,0.0,22.0,100.0
26.97,0.0,0.0,0.0,0.0,0.0,0.0,22.0,100.0
26.93,0.0,0.0,0.0,0.0,0.0,0.0,22.0,100.0
26.93,0.0,0.0,0.0,0.0,0.0,0.0,38.0,100.0
26.87,0.0,0.0,0.0,0.0,0.0,0.0,32.0,100.0
26.91,0.0,0.0,0.0,0.0,0.0,0.0,22.0,100.0
26.85,0.0,0.0,0.0,0.0,0.0,0.0,33.0,100.0
26.93,0.0,0.0,0.0,0.0,0.0,0.0,26.0,100.0
26.93,0.0,0.0,0.0,0.0,0.0,0.0,20.0,100.0
26.91,0.0,0.0,0.0,0.0,0.0,0.0,24.0,100.0
26.91,0.0,0.0,0.0,0.0,0.0,0.0,29.0,100.0
26.93,0.0,0.0,0.0,0.0,0.0,0.0,24.0,100.0
26.87,0.0,0.0,0.0,0.0,0.0,0.0,21.0,100.0
26.87,0.0,0.0,0.0,0.0,0.0,0.0,22.0,100.0
26.97,0.0,0.0,0.0,0.0,0.0,0.0,31.0,100.0
26.91,0.0,0.0,0.0,0.0,0.0,0.0,23.0,100.0
26.91,0.0,0.0,0.0,0.0,0.0,0.0,25.0,100.0
26.83,0.0,0.0,0.0,0.0,0.0,0.0,29.0,100.0
26.87,0.0,0.0,0.0,0.0,0.0,0.0,21.0,100.0
26.85,0.0,0.0,0.0,0.0,0.0,0.0,30.0,100.0
26.83,0.0,0.0,0.0,0.0,0.0,0.0,17.0,100.0
26.79,0.0,0.0,0.0,0.0,0.0,0.0,23.0,100.0
26.77,0.0,0.0,0.0,0.0,0.0,0.0,26.0,100.0
26.77,0.0,0.0,0.0,0.0,0.0,0.0,23.0,100.0
26.79,0.0,0.0,0.0,0.0,0.0,0.0,28.0,100.0
26.79,0.0,0.0,0.0,0.0,0.0,0.0,23.0,100.0
26.87,0.0,0.0,0.0,0.0,0.0,0.0,27.0,100.0
26.71,0.0,0.0,0.0,0.0,0.0,0.0,35.0,100.0
26.83,0.0,0.0,0.0,0.0,0.0,0.0,28.0,100.0
26.67,0.0,0.0,0.0,0.0,0.0,0.0,28.0,100.0
26.77,0.0,0.0,0.0,0.0,0.0,0.0,27.0,100.0
26.79,0.0,0.0,0.0,0.0,0.0,0.0,23.0,100.0
26.77,0.0,0.0,0.0,0.0,0.0,0.0,21.0,100.0
26.77,0.0,0.0,0.0,0.0,0.0,0.0,20.0,100.0
26.71,0.0,0.0,0.0,0.0,0.0,0.0,17.0,100.0
26.67,0.0,0.0,0.0,0.0,0.0,0.0,27.0,100.0
26.73,0.0,0.0,0.0,0.0,0.0,0.0,26.0,100.0
26.71,0.0,0.0,0.0,0.0,0.0,0.0,21.0,100.0
26.67,0.0,0.0,0.0,0.0,0.0,0.0,24.0,100.0
26.71,0.0,0.0,0.0,0.0,0.0,0.0,22.0,100.0
26.77,0.0,0.0,0.0,0.0,0.0,0.0,24.0,100.0
26.65,0.0,0.0,0.0,0.0,0.0,0.0,18.0,100.0
26.73,0.0,0.0,0.0,0.0,0.0,0.0,28.0,100.0
26.61,0.0,0.0,0.0,0.0,0.0,0.0,24.0,100.0
26.65,0.0,0.0,0.0,0.0,0.0,0.0,22.0,100.0
26.65,0.0,0.0,0.0,0.0,0.0,0.0,24.0,100.0
26.65,0.0,0.0,0.0,0.0,0.0,0.0,24.0,100.0
26.65,0.0,0.0,0.0,0.0,0.0,0.0,28.0,100.0
26.65,0.0,0.0,0.0,0.0,0.0,0.0,25.0,100.0
26.65,0.0,0.0,0.0,0.0,0.0,0.0,25.0,100.0
26.65,0.0,0.0,0.0,0.0,0.0,0.0,20.0,100.0
26.67,0.0,0.0,0.0,0.0,0.0,0.0,20.0,100.0
26.67,0.0,0.0,0.0,0.0,0.0,0.0,17.0,15.0
26.61,0.0,0.0,0.0,0.0,0.0,0.0,0.0,15.0
26.53,0.0,0.0,0.0,0.0,0.0,0.0,0.0,15.0
26.47,0.0,0.0,0.0,0.0,0.0,0.0,0.0,15.0
26.67,0.0,0.0,0.0,0.0,0.0,0.0,0.0,15.0
26.93,0.0,0.0,0.0,0.0,0.0,0.0,0.0,15.0
27.41,0.0,0.0,0.0,0.0,0.0,0.0,0.0,15.0
27.43,0.0,0.0,0.0,0.0,0.0,0.0,0.0,15.0
26.55,0.0,0.0,0.0,0.0,0.0,0.0,0.0,15.0
26.61,0.0,0.0,0.0,0.0,0.0,0.0,0.0,15.0
26.55,0.0,0.0,0.0,0.0,0.0,0.0,0.0,15.0
26.53,0.0,0.0,0.0,0.0,0.0,0.0,0.0,15.0
26.59,0.0,0.0,0.0,0.0,0.0,0.0,0.0,15.0
26.59,0.0,0.0,0.0,0.0,0.0,0.0,0.0,15.0
26.61,0.0,0.0,0.0,0.0,0.0,0.0,0.0,15.0
26.61,0.0,0.0,0.0,0.0,0.0,0.0,0.0,15.0
26.59,0.0,0.0,0.0,0.0,0.0,0.0,0.0,15.0
26.53,0.0,0.0,0.0,0.0,0.0,0.0,0.0,15.0
26.61,0.0,0.0,0.0,0.0,0.0,0.0,0.0,15.0
26.59,0.0,0.0,0.0,0.0,0.0,0.0,0.0,15.0
26.59,0.0,0.0,0.0,0.0,0.0,0.0,0.0,15.0
26.55,0.0,0.0,0.0,0.0,0.0,0.0,0.0,15.0
26.59,0.0,0.0,0.0,0.0,0.0,0.0,0.0,15.0
26.55,0.0,0.0,0.0,0.0,0.0,0.0,0.0,15.0
26.53,0.0,0.0,0.0,0.0,0.0,0.0,0.0,15.0
26.53,0.0,0.0,0.0,0.0,0.0,0.0,0.0,15.0
26.49,0.0,0.0,0.0,0.0,0.0,0.0,0.0,15.0
26.49,0.0,0.0,0.0,0.0,0.0,0.0,0.0,15.0
26.49,0.0,0.0,0.0,0.0,0.0,0.0,0.0,15.0
26.43,0.0,0.0,0.0,0.0,0.0,0.0,0.0,15.0
26.47,0.0,0.0,0.0,0.0,0.0,0.0,0.0,15.0
26.53,0.0,0.0,0.0,0.0,0.0,0.0,0.0,15.0
26.47,0.0,0.0,0.0,0.0,0.0,0.0,0.0,15.0
26.43,0.0,0.0,0.0,0.0,0.0,0.0,0.0,15.0
26.49,0.0,0.0,0.0,0.0,0.0,0.0,0.0,15.0
26.55,0.0,0.0,0.0,0.0,0.0,0.0,0.0,15.0
26.43,0.0,0.0,0.0,0.0,0.0,0.0,0.0,15.0
26.49,0.0,0.0,0.0,0.0,0.0,0.0,0.0,15.0
26.53,0.0,0.0,0.0,0.0,0.0,0.0,0.0,15.0
26.53,0.0,0.0,0.0,0.0,0.0,0.0,0.0,15.0
26.49,0.0,0.0,0.0,0.0,0.0,0.0,0.0,15.0
26.47,0.0,0.0,0.0,0.0,0.0,0.0,0.0,15.0
26.49,0.0,0.0,0.0,0.0,0.0,0.0,0.0,15.0
26.49,0.0,0.0,0.0,0.0,0.0,0.0,0.0,15.0
26.43,0.0,0.0,0.0,0.0,0.0,0.0,0.0,15.0
26.53,0.0,0.0,0.0,0.0,0.0,0.0,0.0,15.0
26.83,0.0,0.0,0.0,0.0,0.0,0.0,0.0,15.0
26.91,0.0,0.0,0.0,0.0,0.0,0.0,0.0,15.0
26.87,0.0,0.0,0.0,0.0,0.0,0.0,0.0,15.0
26.91,0.0,0.0,0.0,0.0,0.0,0.0,0.0,15.0
26.87,0.0,0.0,0.0,0.0,0.0,0.0,0.0,15.0
26.87,0.0,0.0,0.0,0.0,0.0,0.0,0.0,17.0
26.99,0.0,0.0,0.0,0.0,0.0,0.0,0.0,26.0
26.91,0.0,0.0,0.0,0.0,0.0,0.0,0.0,35.0
26.87,0.0,0.0,0.0,0.0,0.0,0.0,0.0,45.0
26.87,0.0,0.0,0.0,0.0,0.0,0.0,0.0,55.0
26.85,0.0,0.0,0.0,0.0,0.0,0.0,0.0,66.0
26.85,0.0,0.0,0.0,0.0,0.0,0.0,0.0,76.0
26.79,0.0,0.0,0.0,0.0,0.0,0.0,0.0,86.0
26.67,0.0,0.0,0.0,0.0,0.0,0.0,0.0,96.0
26.73,0.0,0.0,51.0,0.0,0.0,0.0,155.0,100.0
26.71,0.0,0.0,1482.0,0.0,0.0,0.0,337.0,100.0
26.61,0.0,0.0,1556.0,0.0,0.0,0.0,349.0,100.0
26.65,0.0,0.0,1673.0,0.0,0.0,0.0,353.0,100.0
26.67,0.0,0.0,1702.0,0.0,0.0,0.0,380.0,100.0
26.65,0.0,0.0,1723.0,0.0,0.0,0.0,371.0,100.0
26.65,0.0,0.0,1659.0,0.0,0.0,0.0,331.0,100.0
26.67,0.0,0.0,1652.0,0.0,0.0,0.0,333.0,100.0
26.61,0.0,0.0,1377.0,0.0,0.0,0.0,270.0,100.0
26.65,0.0,0.0,1381.0,0.0,0.0,0.0,280.0,100.0
26.67,0.0,0.0,1427.0,0.0,0.0,0.0,298.0,100.0
26.67,0.0,0.0,1456.0,0.0,0.0,0.0,286.0,100.0
26.71,0.0,0.0,1486.0,0.0,0.0,0.0,285.0,100.0
26.67,0.0,0.0,1511.0,0.0,0.0,0.0,276.0,100.0
26.73,0.0,0.0,1527.0,0.0,0.0,0.0,270.0,100.0
26.67,0.0,0.0,1535.0,0.0,0.0,0.0,273.0,100.0
26.65,0.0,0.0,1567.0,0.0,0.0,0.0,276.0,100.0
26.61,0.0,0.0,1594.0,0.0,0.0,0.0,276.0,100.0
26.77,0.0,0.0,1593.0,0.0,0.0,0.0,274.0,100.0
26.79,0.0,0.0,1591.0,0.0,0.0,0.0,277.0,100.0
26.73,0.0,0.0,1595.0,0.0,0.0,0.0,278.0,100.0
26.83,0.0,0.0,1605.0,0.0,0.0,0.0,282.0,100.0
26.77,0.0,0.0,1594.0,0.0,0.0,0.0,284.0,100.0
26.73,0.0,0.0,1601.0,0.0,0.0,0.0,286.0,100.0
26.79,0.0,0.0,1593.0,0.0,0.0,0.0,294.0,100.0
26.71,0.0,0.0,1586.0,0.0,0.0,0.0,301.0,100.0
26.65,0.0,0.0,1568.0,0.0,0.0,0.0,305.0,100.0
26.71,0.0,0.0,1535.0,0.0,0.0,0.0,305.0,100.0
26.67,0.0,0.0,1506.0,0.0,0.0,0.0,313.0,100.0
26.77,0.0,0.0,1518.0,0.0,0.0,0.0,311.0,100.0
26.73,0.0,0.0,1488.0,0.0,0.0,0.0,332.0,100.0
26.67,0.0,0.0,1460.0,0.0,0.0,0.0,322.0,100.0
26.67,0.0,0.0,1433.0,0.0,0.0,0.0,319.0,100.0
26.71,0.0,0.0,1445.0,0.0,0.0,0.0,330.0,100.0
26.77,0.0,0.0,1408.0,0.0,0.0,0.0,332.0,100.0
26.67,0.0,0.0,1392.0,0.0,0.0,0.0,325.0,100.0
26.79,0.0,0.0,1359.0,0.0,0.0,0.0,324.0,100.0
26.79,0.0,0.0,1357.0,0.0,0.0,0.0,321.0,100.0
26.79,0.0,0.0,1350.0,0.0,0.0,0.0,326.0,100.0
26.79,0.0,0.0,1376.0,0.0,0.0,0.0,335.0,100.0
26.77,0.0,0.0,1370.0,0.0,0.0,0.0,335.0,100.0
26.83,0.0,0.0,1386.0,0.0,0.0,0.0,333.0,100.0
26.79,0.0,0.0,1374.0,0.0,0.0,0.0,332.0,100.0
26.77,0.0,0.0,1388.0,0.0,0.0,0.0,342.0,100.0
26.79,0.0,0.0,1385.0,0.0,0.0,0.0,339.0,100.0
26.83,0.0,0.0,1393.0,0.0,0.0,0.0,338.0,100.0
26.77,0.0,0.0,1383.0,0.0,0.0,0.0,338.0,100.0
26.73,0.0,0.0,1355.0,0.0,0.0,0.0,341.0,100.0
26.83,0.0,0.0,1385.0,0.0,0.0,0.0,338.0,100.0
26.79,0.0,0.0,1387.0,0.0,0.0,0.0,338.0,100.0
26.77,0.0,0.0,1386.0,0.0,0.0,0.0,337.0,100.0
26.73,0.0,0.0,1389.0,0.0,0.0,0.0,347.0,100.0
26.71,0.0,0.0,1395.0,0.0,0.0,0.0,330.0,100.0
26.79,0.0,0.0,1389.0,0.0,0.0,0.0,327.0,100.0
26.79,0.0,0.0,1388.0,0.0,0.0,0.0,349.0,100.0
26.77,0.0,0.0,1367.0,0.0,0.0,0.0,339.0,100.0
26.77,0.0,0.0,1383.0,0.0,0.0,0.0,332.0,100.0
26.79,0.0,0.0,1392.0,0.0,0.0,0.0,342.0,100.0
26.87,0.0,0.0,1392.0,0.0,0.0,0.0,339.0,100.0
26.79,0.0,0.0,1385.0,0.0,0.0,0.0,334.0,100.0
26.73,0.0,0.0,1392.0,0.0,0.0,0.0,349.0,100.0
26.77,0.0,0.0,1395.0,0.0,0.0,0.0,338.0,100.0
26.83,0.0,0.0,1393.0,0.0,0.0,0.0,338.0,100.0
26.83,0.0,0.0,1401.0,0.0,0.0,0.0,344.0,100.0
26.77,0.0,0.0,1394.0,0.0,0.0,0.0,344.0,100.0
26.83,0.0,0.0,1394.0,0.0,0.0,0.0,346.0,100.0
26.65,0.0,0.0,1394.0,0.0,0.0,0.0,344.0,100.0
26.73,0.0,0.0,1393.0,0.0,0.0,0.0,334.0,100.0
26.77,0.0,0.0,1354.0,0.0,0.0,0.0,347.0,100.0
26.77,0.0,0.0,1398.0,0.0,0.0,0.0,340.0,100.0
26.77,0.0,0.0,1394.0,0.0,0.0,0.0,358.0,100.0
26.83,0.0,0.0,1392.0,0.0,0.0,0.0,345.0,100.0
26.85,0.0,0.0,1397.0,0.0,0.0,0.0,352.0,100.0
26.71,0.0,0.0,1393.0,0.0,0.0,0.0,349.0,100.0
26.73,0.0,0.0,1399.0,0.0,0.0,0.0,359.0,100.0
26.67,0.0,0.0,1394.0,0.0,0.0,0.0,354.0,100.0
26.65,0.0,0.0,1392.0,0.0,0.0,0.0,334.0,100.0
26.71,0.0,0.0,1398.0,0.0,0.0,0.0,349.0,100.0
26.71,0.0,0.0,1407.0,0.0,0.0,0.0,340.0,100.0
26.71,0.0,0.0,1396.0,0.0,0.0,0.0,347.0,100.0
26.79,0.0,0.0,1406.0,0.0,0.0,0.0,342.0,100.0
26.73,0.0,0.0,1406.0,0.0,0.0,0.0,341.0,100.0
26.77,0.0,0.0,1402.0,0.0,0.0,0.0,347.0,100.0
26.77,0.0,0.0,1395.0,0.0,0.0,0.0,352.0,100.0
26.67,0.0,0.0,1403.0,0.0,0.0,0.0,344.0,100.0
26.77,0.0,0.0,1401.0,0.0,0.0,0.0,332.0,15.0
26.65,0.0,0.0,0.0,0.0,0.0,0.0,0.0,15.0
26.49,0.0,0.0,0.0,0.0,0.0,0.0,0.0,18.0
26.37,0.0,0.0,0.0,0.0,0.0,0.0,0.0,18.0
26.37,0.0,0.0,0.0,0.0,0.0,0.0,0.0,18.0
26.35,0.0,0.0,0.0,0.0,0.0,0.0,0.0,18.0
26.41,0.0,0.0,0.0,0.0,0.0,0.0,0.0,18.0
26.49,0.0,0.0,0.0,0.0,0.0,0.0,0.0,18.0
26.53,0.0,0.0,0.0,0.0,0.0,0.0,0.0,18.0
26.43,0.0,0.0,0.0,0.0,0.0,0.0,0.0,18.0
26.31,0.0,0.0,0.0,0.0,0.0,0.0,0.0,18.0
26.29,0.0,0.0,0.0,0.0,96.0,0.0,0.0,18.0
26.37,0.0,0.0,0.0,0.0,0.0,0.0,0.0,18.0
26.35,0.0,0.0,0.0,0.0,0.0,0.0,0.0,18.0
26.37,0.0,0.0,0.0,0.0,0.0,0.0,0.0,18.0
26.41,0.0,0.0,0.0,0.0,0.0,0.0,0.0,18.0
26.43,0.0,0.0,0.0,0.0,0.0,0.0,0.0,18.0
26.37,0.0,0.0,0.0,0.0,0.0,0.0,0.0,18.0
26.43,0.0,0.0,0.0,0.0,0.0,0.0,0.0,18.0
26.43,0.0,0.0,0.0,0.0,0.0,0.0,0.0,18.0
26.41,0.0,0.0,0.0,0.0,0.0,0.0,0.0,18.0
26.49,0.0,0.0,0.0,0.0,0.0,0.0,0.0,18.0
26.59,0.0,0.0,0.0,0.0,0.0,0.0,0.0,18.0
26.65,0.0,0.0,0.0,0.0,0.0,0.0,0.0,18.0
26.65,0.0,0.0,0.0,0.0,0.0,0.0,0.0,18.0
26.61,0.0,0.0,0.0,0.0,0.0,0.0,0.0,18.0
26.61,0.0,0.0,0.0,0.0,0.0,0.0,0.0,18.0
26.53,0.0,0.0,0.0,0.0,0.0,0.0,0.0,18.0
26.53,0.0,0.0,0.0,0.0,0.0,0.0,0.0,18.0
26.49,0.0,0.0,0.0,0.0,0.0,0.0,0.0,18.0
26.59,0.0,0.0,0.0,0.0,0.0,0.0,0.0,18.0
26.55,0.0,0.0,0.0,0.0,0.0,0.0,0.0,18.0
26.53,0.0,0.0,0.0,0.0,0.0,0.0,0.0,18.0
26.67,0.0,0.0,0.0,0.0,0.0,0.0,0.0,18.0
26.59,0.0,0.0,0.0,0.0,0.0,0.0,0.0,18.0
26.67,0.0,0.0,0.0,0.0,0.0,0.0,0.0,18.0
26.59,0.0,0.0,0.0,0.0,0.0,0.0,0.0,18.0
26.59,0.0,0.0,0.0,0.0,0.0,0.0,0.0,18.0
26.61,0.0,0.0,0.0,0.0,0.0,0.0,0.0,18.0
26.65,0.0,0.0,0.0,0.0,0.0,0.0,0.0,18.0
26.53,0.0,0.0,0.0,0.0,0.0,0.0,0.0,18.0
26.55,0.0,0.0,0.0,0.0,0.0,0.0,0.0,18.0
26.61,0.0,0.0,0.0,0.0,0.0,0.0,0.0,15.0
26.61,0.0,0.0,0.0,0.0,0.0,0.0,0.0,15.0
26.67,0.0,0.0,0.0,0.0,0.0,0.0,0.0,15.0
28.23,0.0,0.0,0.0,0.0,0.0,0.0,0.0,15.0
33.19,0.0,0.0,0.0,0.0,0.0,0.0,0.0,15.0
37.71,0.0,0.0,0.0,0.0,0.0,0.0,0.0,15.0
38.45,0.0,0.0,0.0,0.0,0.0,0.0,0.0,15.0
39.75,0.0,0.0,0.0,0.0,0.0,0.0,0.0,15.0
39.89,0.0,0.0,0.0,0.0,0.0,0.0,0.0,23.0
40.07,0.0,0.0,0.0,0.0,0.0,0.0,0.0,32.0
40.25,0.0,0.0,0.0,0.0,0.0,0.0,0.0,42.0
40.57,0.0,0.0,0.0,0.0,0.0,0.0,0.0,52.0
40.79,0.0,0.0,0.0,0.0,0.0,0.0,0.0,63.0
40.79,0.0,643.0,0.0,0.0,350.0,0.0,2499.0,73.0
40.79,0.0,671.0,0.0,0.0,415.0,0.0,2707.0,82.0
40.71,0.0,694.0,0.0,0.0,433.0,0.0,2760.0,91.0
40.67,0.0,719.0,0.0,0.0,464.0,0.0,2776.0,100.0
40.73,0.0,706.0,0.0,0.0,449.0,0.0,2791.0,100.0
40.71,0.0,711.0,0.0,0.0,464.0,0.0,2818.0,100.0
40.73,0.0,726.0,0.0,0.0,493.0,0.0,2825.0,100.0
40.73,0.0,725.0,0.0,0.0,435.0,0.0,2821.0,100.0
40.71,0.0,756.0,0.0,0.0,298.0,0.0,2836.0,100.0
40.71,0.0,755.0,0.0,0.0,335.0,0.0,2860.0,100.0
40.63,0.0,740.0,0.0,0.0,359.0,0.0,2867.0,100.0
40.71,0.0,816.0,0.0,0.0,167.0,0.0,2867.0,100.0
40.71,0.0,665.0,0.0,0.0,148.0,0.0,2591.0,100.0
40.71,0.0,657.0,0.0,0.0,162.0,0.0,2571.0,100.0
40.71,0.0,665.0,0.0,0.0,0.0,0.0,2594.0,100.0
40.73,0.0,663.0,0.0,0.0,181.0,0.0,2614.0,100.0
40.67,0.0,663.0,0.0,0.0,182.0,0.0,2614.0,100.0
40.81,0.0,659.0,0.0,0.0,189.0,0.0,2620.0,100.0
40.75,0.0,667.0,0.0,0.0,183.0,0.0,2627.0,100.0
40.81,0.0,695.0,0.0,0.0,220.0,0.0,2579.0,100.0
40.85,0.0,707.0,0.0,0.0,285.0,0.0,2529.0,100.0
40.81,0.0,735.0,0.0,0.0,305.0,0.0,2451.0,100.0
40.79,0.0,732.0,0.0,0.0,450.0,0.0,2429.0,100.0
40.79,0.0,745.0,0.0,0.0,489.0,0.0,2395.0,100.0
40.83,0.0,737.0,0.0,0.0,647.0,0.0,2467.0,100.0
40.79,0.0,672.0,0.0,0.0,662.0,0.0,2471.0,100.0
40.79,0.0,738.0,0.0,0.0,673.0,0.0,2484.0,100.0
40.79,0.0,743.0,0.0,0.0,695.0,0.0,2491.0,100.0
40.83,0.0,762.0,0.0,0.0,683.0,0.0,2495.0,100.0
40.81,0.0,752.0,0.0,0.0,627.0,0.0,2509.0,100.0
40.75,0.0,750.0,0.0,0.0,647.0,0.0,2513.0,100.0
40.83,0.0,749.0,0.0,0.0,656.0,0.0,2519.0,100.0
40.81,0.0,746.0,0.0,0.0,667.0,0.0,2495.0,100.0
40.89,0.0,752.0,0.0,0.0,581.0,0.0,2493.0,100.0
40.83,0.0,750.0,0.0,0.0,398.0,0.0,2543.0,100.0
40.83,0.0,734.0,0.0,0.0,368.0,0.0,2563.0,100.0
40.75,0.0,720.0,0.0,0.0,348.0,0.0,2578.0,100.0
40.75,0.0,727.0,0.0,0.0,349.0,0.0,2589.0,100.0
40.73,0.0,727.0,0.0,0.0,352.0,0.0,2579.0,100.0
40.75,0.0,734.0,0.0,0.0,336.0,0.0,2578.0,100.0
40.73,0.0,698.0,0.0,0.0,149.0,0.0,2594.0,100.0
40.73,0.0,714.0,0.0,0.0,300.0,0.0,2621.0,100.0
40.71,0.0,702.0,0.0,0.0,243.0,0.0,2653.0,100.0
40.71,0.0,686.0,0.0,0.0,235.0,0.0,2668.0,100.0
40.63,0.0,609.0,0.0,0.0,203.0,0.0,2722.0,100.0
40.71,0.0,615.0,0.0,0.0,203.0,0.0,2825.0,100.0
40.79,0.0,634.0,0.0,0.0,205.0,0.0,2784.0,100.0
40.83,0.0,656.0,0.0,0.0,224.0,0.0,2723.0,100.0
40.83,0.0,667.0,0.0,0.0,240.0,0.0,2688.0,100.0
40.91,0.0,651.0,0.0,0.0,211.0,0.0,2718.0,100.0
40.91,0.0,624.0,0.0,0.0,208.0,0.0,2795.0,100.0
40.91,0.0,594.0,0.0,0.0,240.0,0.0,2878.0,100.0
40.85,0.0,592.0,0.0,0.0,240.0,0.0,2883.0,100.0
40.85,0.0,595.0,0.0,0.0,239.0,0.0,2880.0,100.0
40.89,0.0,576.0,0.0,0.0,265.0,0.0,2883.0,100.0
40.93,0.0,576.0,0.0,0.0,254.0,0.0,2888.0,100.0
41.07,0.0,555.0,0.0,0.0,286.0,0.0,2895.0,100.0
40.99,0.0,524.0,0.0,0.0,244.0,0.0,2842.0,100.0
41.03,0.0,507.0,0.0,0.0,247.0,0.0,2868.0,100.0
41.03,0.0,511.0,0.0,0.0,281.0,0.0,2890.0,100.0
41.07,0.0,509.0,0.0,0.0,290.0,0.0,2889.0,100.0
41.11,0.0,528.0,0.0,0.0,263.0,0.0,2879.0,100.0
41.11,0.0,484.0,0.0,0.0,299.0,0.0,2882.0,100.0
41.09,0.0,511.0,0.0,0.0,182.0,0.0,2867.0,100.0
41.15,0.0,511.0,0.0,0.0,304.0,0.0,2897.0,100.0
41.07,0.0,511.0,0.0,0.0,295.0,0.0,2888.0,100.0
41.11,0.0,527.0,0.0,0.0,256.0,0.0,2899.0,100.0
41.17,0.0,511.0,0.0,0.0,305.0,0.0,2896.0,100.0
41.11,0.0,528.0,0.0,0.0,269.0,0.0,2890.0,100.0
41.09,0.0,528.0,0.0,0.0,305.0,0.0,2895.0,100.0
41.17,0.0,523.0,0.0,0.0,293.0,0.0,2895.0,100.0
41.19,0.0,507.0,0.0,0.0,304.0,0.0,2904.0,100.0
41.17,0.0,530.0,0.0,0.0,306.0,0.0,2891.0,100.0
41.17,0.0,525.0,0.0,0.0,295.0,0.0,2893.0,100.0
41.21,0.0,511.0,0.0,0.0,299.0,0.0,2899.0,100.0
41.19,0.0,531.0,0.0,0.0,304.0,0.0,2902.0,100.0
41.17,0.0,529.0,0.0,0.0,305.0,0.0,2892.0,100.0
41.19,0.0,566.0,0.0,0.0,295.0,0.0,2904.0,100.0
41.09,0.0,528.0,0.0,0.0,307.0,0.0,2912.0,100.0
41.15,0.0,610.0,0.0,0.0,437.0,0.0,2899.0,100.0
41.21,0.0,529.0,0.0,0.0,416.0,0.0,2902.0,100.0
41.19,0.0,528.0,0.0,0.0,306.0,0.0,2906.0,100.0
41.19,0.0,534.0,0.0,0.0,306.0,0.0,2907.0,100.0
41.25,0.0,528.0,0.0,0.0,303.0,0.0,2905.0,100.0
41.21,0.0,528.0,0.0,0.0,306.0,0.0,2900.0,100.0
41.21,0.0,535.0,0.0,0.0,302.0,0.0,2908.0,100.0
41.21,0.0,531.0,0.0,0.0,307.0,0.0,2916.0,100.0
41.25,0.0,530.0,0.0,0.0,305.0,0.0,2901.0,100.0
41.27,0.0,531.0,0.0,0.0,304.0,0.0,2908.0,100.0
41.25,0.0,543.0,0.0,0.0,311.0,0.0,2905.0,100.0
41.29,0.0,533.0,0.0,0.0,306.0,0.0,2902.0,15.0
41.25,0.0,0.0,0.0,0.0,0.0,0.0,489.0,15.0
31.33,0.0,0.0,0.0,0.0,0.0,0.0,0.0,15.0
27.29,0.0,0.0,0.0,0.0,0.0,0.0,0.0,15.0
27.17,0.0,0.0,0.0,0.0,0.0,0.0,0.0,15.0
27.17,0.0,0.0,0.0,0.0,0.0,0.0,0.0,15.0
27.03,0.0,0.0,0.0,0.0,0.0,0.0,0.0,15.0
26.91,0.0,0.0,0.0,0.0,0.0,0.0,0.0,15.0
26.97,0.0,0.0,0.0,0.0,0.0,0.0,0.0,15.0
26.93,0.0,0.0,0.0,0.0,0.0,0.0,0.0,15.0
26.79,0.0,0.0,0.0,0.0,0.0,0.0,0.0,15.0
26.73,0.0,0.0,0.0,0.0,0.0,0.0,0.0,15.0
26.67,0.0,0.0,0.0,0.0,0.0,0.0,0.0,15.0
26.65,0.0,0.0,0.0,0.0,0.0,0.0,0.0,15.0
26.71,0.0,0.0,0.0,0.0,0.0,0.0,0.0,15.0
26.71,0.0,0.0,0.0,0.0,0.0,0.0,0.0,15.0
26.67,0.0,0.0,0.0,0.0,0.0,0.0,0.0,15.0
26.77,0.0,0.0,0.0,0.0,0.0,0.0,0.0,15.0
26.73,0.0,0.0,0.0,0.0,0.0,0.0,0.0,15.0
26.71,0.0,0.0,0.0,0.0,0.0,0.0,0.0,15.0
26.71,0.0,0.0,0.0,0.0,0.0,0.0,0.0,15.0
26.73,0.0,0.0,0.0,0.0,0.0,0.0,0.0,15.0
26.79,0.0,0.0,0.0,0.0,0.0,0.0,0.0,15.0
26.77,0.0,0.0,0.0,0.0,0.0,0.0,0.0,15.0
26.77,0.0,0.0,0.0,0.0,0.0,0.0,0.0,15.0
26.71,0.0,0.0,0.0,0.0,0.0,0.0,0.0,15.0
26.71,0.0,0.0,0.0,0.0,0.0,0.0,0.0,15.0
26.73,0.0,0.0,0.0,0.0,0.0,0.0,0.0,15.0
26.73,0.0,0.0,0.0,0.0,0.0,0.0,0.0,15.0
26.83,0.0,0.0,0.0,0.0,0.0,0.0,0.0,15.0
26.71,0.0,0.0,0.0,0.0,0.0,0.0,0.0,15.0
26.85,0.0,0.0,0.0,0.0,0.0,0.0,0.0,15.0
26.73,0.0,0.0,0.0,0.0,0.0,0.0,0.0,15.0
26.73,0.0,0.0,0.0,0.0,0.0,0.0,0.0,15.0
26.87,0.0,0.0,0.0,0.0,0.0,0.0,0.0,15.0
26.77,0.0,0.0,0.0,0.0,0.0,0.0,0.0,15.0
26.83,0.0,0.0,0.0,0.0,0.0,0.0,0.0,15.0
26.79,0.0,0.0,0.0,0.0,0.0,0.0,0.0,15.0
26.77,0.0,0.0,0.0,0.0,0.0,0.0,0.0,15.0
26.79,0.0,0.0,0.0,0.0,0.0,0.0,0.0,15.0
26.73,0.0,0.0,0.0,0.0,0.0,0.0,0.0,15.0
26.79,0.0,0.0,0.0,0.0,0.0,0.0,0.0,15.0
26.71,0.0,0.0,0.0,0.0,0.0,0.0,0.0,15.0
26.85,0.0,0.0,0.0,0.0,0.0,0.0,0.0,15.0
26.85,0.0,0.0,0.0,0.0,0.0,0.0,0.0,15.0
26.83,0.0,0.0,0.0,0.0,0.0,0.0,0.0,15.0
26.93,0.0,0.0,0.0,0.0,0.0,0.0,0.0,15.0
26.87,0.0,0.0,0.0,0.0,0.0,0.0,0.0,15.0
26.91,0.0,0.0,0.0,0.0,0.0,0.0,0.0,19.0
26.93,0.0,0.0,0.0,0.0,0.0,0.0,0.0,28.0
26.91,0.0,0.0,0.0,0.0,0.0,0.0,0.0,38.0
26.87,0.0,0.0,0.0,0.0,0.0,0.0,0.0,48.0
27.03,0.0,0.0,0.0,0.0,0.0,0.0,0.0,58.0
27.11,0.0,0.0,0.0,0.0,0.0,0.0,0.0,68.0
27.21,0.0,0.0,0.0,0.0,0.0,0.0,0.0,77.0
27.11,0.0,0.0,0.0,0.0,0.0,0.0,0.0,87.0
27.03,16.0,0.0,0.0,0.0,0.0,0.0,0.0,97.0
26.87,0.0,0.0,0.0,0.0,0.0,0.0,209.0,100.0
26.93,0.0,0.0,0.0,0.0,0.0,0.0,239.0,100.0
26.87,0.0,0.0,0.0,0.0,0.0,0.0,268.0,100.0
26.93,0.0,0.0,0.0,0.0,0.0,0.0,264.0,100.0
26.91,0.0,0.0,0.0,0.0,0.0,0.0,271.0,100.0
26.87,0.0,0.0,32.0,0.0,0.0,0.0,277.0,100.0
26.93,0.0,0.0,78.0,55.0,0.0,0.0,264.0,100.0
26.87,0.0,0.0,96.0,0.0,0.0,0.0,273.0,100.0
27.03,0.0,0.0,144.0,0.0,0.0,0.0,288.0,100.0
26.97,0.0,0.0,163.0,0.0,0.0,0.0,297.0,100.0
27.09,0.0,0.0,191.0,0.0,0.0,0.0,284.0,100.0
27.05,0.0,0.0,228.0,0.0,0.0,0.0,296.0,100.0
27.15,0.0,0.0,245.0,5.0,0.0,0.0,303.0,100.0
27.15,0.0,0.0,256.0,0.0,0.0,0.0,294.0,100.0
27.11,0.0,0.0,273.0,5.0,0.0,0.0,295.0,100.0
27.05,0.0,0.0,293.0,3.0,0.0,0.0,293.0,100.0
27.05,0.0,0.0,311.0,14.0,0.0,0.0,298.0,100.0
26.97,0.0,0.0,316.0,12.0,0.0,0.0,294.0,100.0
26.99,0.0,0.0,333.0,14.0,0.0,0.0,300.0,100.0
26.93,0.0,0.0,334.0,16.0,0.0,0.0,303.0,100.0
26.91,0.0,0.0,350.0,37.0,0.0,0.0,303.0,100.0
26.93,0.0,0.0,355.0,12.0,0.0,0.0,308.0,100.0
26.91,0.0,0.0,375.0,18.0,0.0,0.0,300.0,100.0
26.97,0.0,0.0,398.0,19.0,0.0,0.0,291.0,100.0
26.93,0.0,0.0,394.0,23.0,0.0,0.0,290.0,100.0
26.91,0.0,0.0,401.0,23.0,0.0,0.0,293.0,100.0
26.93,0.0,0.0,426.0,24.0,0.0,0.0,298.0,100.0
26.91,0.0,0.0,434.0,37.0,0.0,0.0,287.0,100.0
26.93,0.0,0.0,444.0,33.0,0.0,0.0,291.0,100.0
26.87,0.0,0.0,453.0,0.0,0.0,0.0,291.0,100.0
26.85,0.0,0.0,457.0,112.0,0.0,0.0,294.0,100.0
26.91,0.0,0.0,462.0,44.0,0.0,0.0,302.0,100.0
26.99,0.0,0.0,470.0,48.0,0.0,0.0,304.0,100.0
26.93,0.0,0.0,469.0,48.0,0.0,0.0,312.0,100.0
26.99,0.0,0.0,471.0,45.0,0.0,0.0,314.0,100.0
26.93,0.0,0.0,467.0,52.0,0.0,0.0,315.0,100.0
26.93,0.0,0.0,483.0,58.0,0.0,0.0,310.0,100.0
26.93,0.0,0.0,487.0,52.0,0.0,0.0,315.0,100.0
26.93,0.0,0.0,496.0,65.0,0.0,0.0,303.0,100.0
27.05,0.0,0.0,485.0,62.0,0.0,0.0,297.0,100.0
26.97,0.0,0.0,482.0,66.0,0.0,0.0,291.0,100.0
26.99,0.0,0.0,493.0,65.0,0.0,0.0,300.0,100.0
27.03,0.0,0.0,499.0,69.0,0.0,0.0,302.0,100.0
27.03,0.0,0.0,496.0,69.0,0.0,0.0,298.0,100.0
27.03,0.0,0.0,496.0,75.0,0.0,0.0,301.0,100.0
27.03,0.0,0.0,500.0,79.0,0.0,0.0,303.0,100.0
26.99,0.0,0.0,501.0,50.0,0.0,0.0,306.0,100.0
27.09,0.0,0.0,496.0,100.0,0.0,0.0,308.0,100.0
27.09,0.0,0.0,506.0,80.0,0.0,0.0,312.0,100.0
27.09,0.0,0.0,526.0,0.0,0.0,0.0,311.0,100.0
27.11,0.0,0.0,509.0,80.0,0.0,0.0,310.0,100.0
27.09,0.0,0.0,407.0,80.0,0.0,0.0,306.0,100.0
27.05,0.0,0.0,497.0,0.0,0.0,0.0,311.0,100.0
27.03,0.0,0.0,511.0,77.0,0.0,0.0,317.0,100.0
27.09,0.0,0.0,523.0,0.0,0.0,0.0,313.0,100.0
27.09,0.0,0.0,511.0,160.0,0.0,0.0,303.0,100.0
26.99,0.0,0.0,511.0,107.0,0.0,0.0,306.0,100.0
27.03,0.0,0.0,563.0,88.0,0.0,0.0,307.0,100.0
27.03,0.0,0.0,525.0,211.0,0.0,0.0,315.0,100.0
26.97,0.0,0.0,511.0,93.0,0.0,0.0,318.0,100.0
26.91,0.0,0.0,526.0,86.0,0.0,0.0,319.0,100.0
26.99,0.0,0.0,526.0,80.0,0.0,0.0,320.0,100.0
26.87,0.0,0.0,527.0,84.0,0.0,0.0,317.0,100.0
26.87,0.0,0.0,519.0,97.0,0.0,0.0,317.0,100.0
26.87,0.0,0.0,526.0,0.0,0.0,0.0,319.0,100.0
26.91,0.0,0.0,509.0,100.0,0.0,0.0,326.0,100.0
26.91,0.0,0.0,527.0,95.0,0.0,0.0,322.0,100.0
26.99,0.0,0.0,524.0,0.0,0.0,0.0,322.0,100.0
26.97,0.0,0.0,528.0,79.0,0.0,0.0,315.0,100.0
26.93,0.0,0.0,528.0,99.0,0.0,0.0,310.0,100.0
26.99,0.0,0.0,526.0,95.0,0.0,0.0,314.0,100.0
26.93,0.0,0.0,561.0,96.0,0.0,0.0,310.0,100.0
26.97,0.0,0.0,528.0,104.0,0.0,0.0,313.0,100.0
26.93,0.0,0.0,527.0,107.0,0.0,0.0,315.0,100.0
26.97,0.0,0.0,530.0,50.0,0.0,0.0,316.0,100.0
26.97,0.0,0.0,528.0,100.0,0.0,0.0,324.0,100.0
26.91,0.0,0.0,368.0,97.0,0.0,0.0,325.0,100.0
26.91,0.0,0.0,511.0,109.0,0.0,0.0,322.0,100.0
26.91,0.0,0.0,527.0,108.0,0.0,0.0,321.0,100.0
26.93,0.0,0.0,511.0,95.0,0.0,0.0,325.0,100.0
26.93,0.0,0.0,510.0,102.0,0.0,0.0,332.0,100.0
26.93,0.0,0.0,528.0,0.0,0.0,0.0,330.0,100.0
26.93,0.0,0.0,523.0,117.0,0.0,0.0,337.0,100.0
26.97,0.0,0.0,525.0,98.0,0.0,0.0,332.0,100.0
26.97,0.0,0.0,525.0,103.0,0.0,0.0,334.0,100.0
26.93,0.0,0.0,528.0,112.0,0.0,0.0,319.0,100.0
26.93,0.0,0.0,528.0,110.0,0.0,0.0,321.0,100.0
26.91,0.0,0.0,437.0,94.0,0.0,0.0,298.0,15.0
27.05,0.0,0.0,5.0,0.0,0.0,0.0,0.0,15.0
26.61,0.0,0.0,0.0,0.0,0.0,0.0,0.0,15.0
26.55,0.0,0.0,0.0,0.0,0.0,0.0,0.0,15.0
26.49,0.0,0.0,0.0,0.0,0.0,0.0,0.0,15.0
26.65,0.0,0.0,0.0,0.0,0.0,0.0,0.0,15.0
27.49,0.0,0.0,0.0,0.0,0.0,0.0,0.0,15.0
27.21,0.0,0.0,0.0,0.0,0.0,0.0,0.0,15.0
26.59,0.0,0.0,0.0,0.0,0.0,0.0,0.0,15.0
26.55,0.0,0.0,0.0,0.0,0.0,0.0,0.0,15.0
26.53,0.0,0.0,0.0,0.0,0.0,0.0,0.0,15.0
26.61,0.0,0.0,0.0,0.0,0.0,0.0,0.0,15.0
26.65,0.0,0.0,0.0,0.0,0.0,0.0,0.0,15.0
26.67,0.0,0.0,0.0,0.0,0.0,0.0,0.0,15.0
26.61,0.0,0.0,0.0,0.0,0.0,0.0,0.0,15.0
26.65,0.0,0.0,0.0,0.0,0.0,0.0,0.0,15.0
26.65,0.0,0.0,0.0,0.0,0.0,0.0,0.0,15.0
26.59,0.0,0.0,0.0,0.0,0.0,0.0,0.0,15.0
26.61,0.0,0.0,0.0,0.0,0.0,0.0,0.0,15.0
26.59,0.0,0.0,0.0,0.0,0.0,0.0,0.0,15.0
26.53,0.0,0.0,0.0,0.0,0.0,0.0,0.0,15.0
26.59,0.0,0.0,0.0,0.0,0.0,0.0,0.0,15.0
26.59,0.0,0.0,0.0,0.0,0.0,0.0,0.0,15.0
26.61,0.0,0.0,0.0,0.0,0.0,0.0,0.0,15.0
26.55,0.0,0.0,0.0,0.0,0.0,0.0,0.0,15.0
26.59,0.0,0.0,0.0,0.0,0.0,0.0,0.0,15.0
26.61,0.0,0.0,0.0,0.0,0.0,0.0,0.0,15.0
26.53,0.0,0.0,0.0,0.0,0.0,0.0,0.0,15.0
26.59,0.0,0.0,0.0,0.0,0.0,0.0,0.0,15.0
26.61,0.0,0.0,0.0,0.0,0.0,0.0,0.0,15.0
26.73,0.0,0.0,0.0,0.0,0.0,0.0,0.0,15.0
26.67,0.0,0.0,0.0,0.0,0.0,0.0,0.0,15.0
26.65,0.0,0.0,0.0,0.0,0.0,0.0,0.0,15.0
26.73,0.0,0.0,0.0,0.0,0.0,0.0,0.0,15.0
26.71,0.0,0.0,0.0,0.0,0.0,0.0,0.0,15.0
26.73,0.0,0.0,0.0,0.0,0.0,0.0,0.0,15.0
26.67,0.0,0.0,0.0,0.0,0.0,0.0,0.0,15.0
26.73,0.0,0.0,0.0,0.0,0.0,0.0,0.0,15.0
26.73,0.0,0.0,0.0,0.0,0.0,0.0,0.0,15.0
26.73,0.0,0.0,0.0,0.0,0.0,0.0,0.0,15.0
26.73,0.0,0.0,0.0,0.0,0.0,0.0,0.0,15.0
26.61,0.0,0.0,0.0,0.0,0.0,0.0,0.0,15.0
26.79,0.0,0.0,0.0,0.0,0.0,0.0,0.0,15.0
26.85,0.0,0.0,0.0,0.0,0.0,0.0,0.0,15.0
26.93,0.0,0.0,0.0,0.0,0.0,0.0,0.0,15.0
26.93,0.0,0.0,0.0,0.0,0.0,0.0,0.0,15.0
27.21,0.0,0.0,0.0,0.0,0.0,0.0,0.0,15.0
26.99,0.0,0.0,0.0,0.0,0.0,0.0,0.0,15.0
26.97,0.0,0.0,0.0,0.0,0.0,0.0,0.0,22.0
26.99,0.0,0.0,0.0,0.0,0.0,0.0,0.0,31.0
26.97,0.0,0.0,0.0,0.0,0.0,0.0,0.0,39.0
27.05,0.0,0.0,0.0,0.0,0.0,0.0,0.0,49.0
27.05,0.0,0.0,0.0,0.0,0.0,0.0,0.0,60.0
26.99,0.0,0.0,0.0,0.0,0.0,0.0,0.0,70.0
26.87,0.0,0.0,0.0,0.0,0.0,0.0,713.0,79.0
26.87,0.0,542.0,0.0,0.0,0.0,0.0,1983.0,90.0
26.87,0.0,582.0,0.0,0.0,51.0,0.0,2035.0,99.0
26.87,0.0,555.0,0.0,0.0,128.0,0.0,2026.0,100.0
26.87,0.0,674.0,0.0,0.0,64.0,0.0,2065.0,100.0
26.83,0.0,677.0,0.0,0.0,94.0,0.0,2113.0,100.0
26.83,0.0,681.0,0.0,0.0,0.0,0.0,2139.0,100.0
26.83,0.0,677.0,0.0,0.0,66.0,0.0,2155.0,100.0
26.79,0.0,686.0,0.0,0.0,62.0,0.0,2169.0,100.0
26.79,0.0,671.0,0.0,0.0,46.0,0.0,2168.0,100.0
26.83,0.0,598.0,0.0,0.0,20.0,0.0,1976.0,100.0
26.83,0.0,590.0,0.0,0.0,0.0,0.0,1853.0,100.0
26.79,0.0,624.0,0.0,0.0,4.0,0.0,1775.0,100.0
26.83,0.0,667.0,0.0,0.0,7.0,0.0,1733.0,100.0
26.85,0.0,548.0,0.0,0.0,48.0,0.0,1680.0,100.0
26.83,0.0,700.0,0.0,0.0,90.0,0.0,1680.0,100.0
26.93,0.0,720.0,0.0,0.0,158.0,0.0,1729.0,100.0
26.77,0.0,721.0,0.0,0.0,147.0,0.0,1782.0,100.0
26.85,0.0,725.0,0.0,0.0,166.0,0.0,1842.0,100.0
26.85,0.0,735.0,0.0,0.0,0.0,0.0,1856.0,100.0
26.85,0.0,727.0,0.0,0.0,176.0,0.0,1843.0,100.0
26.83,0.0,737.0,0.0,0.0,176.0,0.0,1850.0,100.0
26.79,0.0,743.0,0.0,0.0,185.0,0.0,1858.0,100.0
26.77,0.0,747.0,0.0,0.0,181.0,0.0,1868.0,100.0
26.83,0.0,723.0,0.0,0.0,161.0,0.0,1762.0,100.0
26.77,0.0,720.0,0.0,0.0,134.0,0.0,1741.0,100.0
26.77,0.0,705.0,0.0,0.0,48.0,0.0,1827.0,100.0
26.77,0.0,715.0,0.0,0.0,66.0,0.0,1850.0,100.0
26.83,0.0,720.0,0.0,0.0,84.0,0.0,1880.0,100.0
26.79,0.0,705.0,0.0,0.0,91.0,0.0,1889.0,100.0
26.73,0.0,717.0,0.0,0.0,97.0,0.0,1899.0,100.0
26.79,0.0,693.0,0.0,0.0,16.0,0.0,1853.0,100.0
26.73,0.0,672.0,0.0,0.0,0.0,0.0,1892.0,100.0
26.79,0.0,637.0,0.0,0.0,64.0,0.0,1912.0,100.0
26.77,0.0,641.0,0.0,0.0,32.0,0.0,1924.0,100.0
26.77,0.0,651.0,0.0,0.0,49.0,0.0,1941.0,100.0
26.77,0.0,656.0,0.0,0.0,40.0,0.0,1955.0,100.0
26.67,0.0,676.0,0.0,0.0,14.0,0.0,1917.0,100.0
26.73,0.0,576.0,0.0,0.0,5.0,0.0,1965.0,100.0
26.73,0.0,482.0,0.0,0.0,0.0,0.0,2033.0,100.0
26.77,0.0,400.0,0.0,0.0,0.0,0.0,2041.0,100.0
26.79,0.0,432.0,0.0,0.0,0.0,0.0,2053.0,100.0
26.79,0.0,66.0,0.0,0.0,0.0,0.0,2035.0,100.0
26.79,0.0,27.0,0.0,0.0,0.0,0.0,2147.0,100.0
26.85,0.0,127.0,0.0,0.0,0.0,0.0,2164.0,100.0
26.73,0.0,92.0,0.0,0.0,0.0,0.0,2177.0,100.0
26.83,0.0,52.0,0.0,0.0,0.0,0.0,2190.0,100.0
26.79,0.0,40.0,0.0,0.0,0.0,0.0,2208.0,100.0
26.85,0.0,20.0,0.0,0.0,0.0,0.0,2214.0,100.0
26.79,0.0,31.0,0.0,0.0,0.0,0.0,2223.0,100.0
26.77,0.0,32.0,0.0,0.0,0.0,0.0,2234.0,100.0
26.79,0.0,30.0,0.0,0.0,0.0,0.0,2239.0,100.0
26.73,0.0,95.0,0.0,0.0,0.0,0.0,2247.0,100.0
26.77,0.0,43.0,0.0,0.0,0.0,0.0,2249.0,100.0
26.73,0.0,23.0,0.0,0.0,0.0,0.0,2247.0,100.0
26.71,0.0,43.0,0.0,416.0,0.0,0.0,2265.0,100.0
26.65,0.0,45.0,0.0,0.0,0.0,0.0,2264.0,100.0
26.67,0.0,47.0,0.0,0.0,0.0,0.0,2265.0,100.0
26.65,0.0,39.0,0.0,0.0,0.0,0.0,2272.0,100.0
26.59,0.0,48.0,0.0,0.0,0.0,0.0,2268.0,100.0
26.59,0.0,52.0,0.0,0.0,0.0,0.0,2282.0,100.0
26.61,0.0,37.0,0.0,0.0,0.0,0.0,2289.0,100.0
26.61,0.0,48.0,0.0,0.0,0.0,0.0,2274.0,100.0
26.59,0.0,45.0,0.0,0.0,0.0,0.0,2289.0,100.0
26.71,0.0,34.0,0.0,0.0,0.0,0.0,2288.0,100.0
26.65,0.0,38.0,0.0,0.0,0.0,0.0,2298.0,100.0
26.59,0.0,43.0,0.0,0.0,0.0,0.0,2289.0,100.0
26.61,0.0,39.0,0.0,0.0,0.0,0.0,2297.0,100.0
26.65,0.0,42.0,0.0,0.0,0.0,0.0,2296.0,100.0
26.77,0.0,53.0,0.0,0.0,0.0,0.0,2289.0,100.0
26.71,0.0,48.0,0.0,0.0,0.0,0.0,2297.0,100.0
26.73,0.0,79.0,0.0,0.0,0.0,0.0,2271.0,100.0
26.65,0.0,0.0,0.0,0.0,0.0,0.0,2277.0,100.0
26.73,0.0,20.0,0.0,0.0,0.0,0.0,2295.0,100.0
26.73,0.0,29.0,0.0,0.0,0.0,0.0,2305.0,100.0
26.73,0.0,39.0,0.0,0.0,0.0,0.0,2292.0,100.0
26.77,0.0,28.0,0.0,0.0,0.0,0.0,2305.0,100.0
26.73,0.0,28.0,0.0,0.0,0.0,0.0,2308.0,100.0
26.73,0.0,0.0,0.0,0.0,0.0,0.0,2304.0,100.0
26.67,0.0,0.0,0.0,0.0,0.0,0.0,2305.0,100.0
26.73,0.0,16.0,0.0,0.0,0.0,0.0,2303.0,100.0
26.71,0.0,38.0,0.0,0.0,0.0,0.0,2308.0,100.0
26.71,0.0,38.0,0.0,0.0,0.0,0.0,2307.0,100.0
26.71,0.0,25.0,0.0,0.0,0.0,0.0,2314.0,100.0
26.61,0.0,35.0,0.0,0.0,0.0,0.0,2307.0,100.0
26.67,0.0,34.0,0.0,0.0,0.0,0.0,2324.0,100.0
26.71,0.0,32.0,0.0,0.0,0.0,0.0,2309.0,100.0
26.71,0.0,0.0,0.0,0.0,0.0,0.0,2315.0,100.0
26.73,0.0,39.0,0.0,0.0,0.0,0.0,2316.0,100.0
26.73,0.0,43.0,0.0,0.0,0.0,0.0,2317.0,100.0
26.71,0.0,0.0,0.0,0.0,0.0,0.0,1185.0,15.0
26.77,0.0,0.0,0.0,0.0,0.0,0.0,5.0,15.0
26.87,0.0,0.0,0.0,0.0,0.0,0.0,0.0,15.0
26.59,0.0,0.0,0.0,0.0,0.0,0.0,0.0,15.0
26.59,0.0,0.0,0.0,0.0,0.0,0.0,0.0,15.0
26.55,0.0,0.0,0.0,0.0,0.0,0.0,0.0,15.0
26.67,0.0,0.0,0.0,0.0,0.0,0.0,0.0,15.0
26.59,0.0,0.0,0.0,0.0,0.0,0.0,0.0,15.0
26.61,0.0,0.0,0.0,0.0,0.0,0.0,0.0,15.0
26.55,0.0,0.0,0.0,0.0,0.0,0.0,0.0,15.0
26.53,0.0,0.0,0.0,0.0,0.0,0.0,0.0,15.0
26.49,0.0,0.0,0.0,0.0,0.0,0.0,0.0,15.0
26.55,0.0,0.0,0.0,0.0,0.0,0.0,0.0,15.0
26.53,0.0,0.0,0.0,0.0,0.0,0.0,0.0,15.0
26.43,0.0,0.0,0.0,0.0,0.0,0.0,0.0,15.0
26.47,0.0,0.0,0.0,0.0,0.0,0.0,0.0,15.0
26.53,0.0,0.0,0.0,0.0,0.0,0.0,0.0,15.0
26.49,0.0,0.0,0.0,0.0,0.0,0.0,0.0,15.0
26.55,0.0,0.0,0.0,0.0,0.0,0.0,0.0,15.0
26.53,0.0,0.0,0.0,0.0,0.0,0.0,0.0,15.0
26.61,0.0,0.0,0.0,0.0,0.0,0.0,0.0,15.0
26.59,0.0,0.0,0.0,0.0,0.0,0.0,0.0,15.0
26.61,0.0,0.0,0.0,0.0,0.0,0.0,0.0,15.0
26.55,0.0,0.0,0.0,0.0,0.0,0.0,0.0,15.0
26.65,0.0,0.0,0.0,0.0,0.0,0.0,0.0,15.0
26.53,0.0,0.0,0.0,0.0,0.0,0.0,0.0,15.0
26.71,0.0,0.0,0.0,0.0,0.0,0.0,0.0,15.0
26.59,236.0,0.0,0.0,0.0,0.0,0.0,0.0,15.0
26.65,0.0,0.0,0.0,0.0,0.0,0.0,0.0,15.0
26.61,0.0,0.0,0.0,0.0,0.0,0.0,0.0,15.0
26.65,0.0,0.0,0.0,0.0,0.0,0.0,0.0,15.0
26.71,0.0,0.0,0.0,0.0,0.0,0.0,0.0,15.0
26.67,0.0,0.0,0.0,0.0,0.0,0.0,0.0,15.0
26.67,0.0,0.0,0.0,0.0,0.0,0.0,0.0,15.0
26.71,0.0,0.0,0.0,0.0,0.0,0.0,0.0,15.0
26.77,0.0,0.0,0.0,0.0,0.0,0.0,0.0,15.0
26.79,0.0,0.0,0.0,0.0,0.0,0.0,0.0,15.0
26.83,0.0,0.0,0.0,0.0,0.0,0.0,0.0,15.0
26.87,0.0,0.0,0.0,0.0,0.0,0.0,0.0,15.0
26.79,0.0,0.0,0.0,0.0,0.0,0.0,0.0,15.0
26.77,0.0,0.0,0.0,0.0,0.0,0.0,0.0,15.0
26.83,0.0,0.0,0.0,0.0,0.0,0.0,0.0,15.0
26.83,0.0,0.0,0.0,0.0,0.0,0.0,0.0,15.0
26.79,0.0,0.0,0.0,0.0,0.0,0.0,0.0,15.0
26.87,0.0,0.0,0.0,0.0,0.0,0.0,0.0,15.0
27.05,0.0,0.0,0.0,0.0,0.0,0.0,0.0,15.0
27.75,0.0,0.0,0.0,0.0,0.0,0.0,0.0,15.0
38.19,0.0,0.0,0.0,0.0,0.0,0.0,0.0,15.0
42.19,0.0,0.0,0.0,0.0,0.0,0.0,0.0,15.0
42.67,0.0,0.0,0.0,0.0,0.0,0.0,0.0,15.0
43.29,0.0,0.0,0.0,0.0,0.0,0.0,0.0,15.0
43.31,0.0,0.0,0.0,0.0,0.0,0.0,0.0,25.0
42.73,0.0,0.0,0.0,0.0,0.0,0.0,0.0,34.0
42.13,0.0,0.0,0.0,0.0,0.0,0.0,0.0,44.0
42.15,0.0,0.0,0.0,0.0,0.0,0.0,0.0,54.0
42.77,0.0,0.0,0.0,0.0,0.0,0.0,0.0,63.0
42.67,0.0,579.0,0.0,0.0,821.0,0.0,2501.0,73.0
42.61,0.0,671.0,0.0,0.0,834.0,0.0,2736.0,82.0
42.53,0.0,640.0,0.0,0.0,830.0,0.0,2768.0,92.0
42.49,0.0,704.0,0.0,0.0,672.0,0.0,2761.0,100.0
42.45,0.0,656.0,0.0,0.0,651.0,0.0,2826.0,100.0
42.39,0.0,752.0,0.0,0.0,654.0,0.0,2849.0,100.0
42.49,0.0,762.0,0.0,0.0,656.0,0.0,2867.0,100.0
42.45,0.0,1103.0,0.0,0.0,658.0,0.0,2883.0,100.0
42.43,0.0,762.0,0.0,0.0,656.0,0.0,2881.0,100.0
42.39,0.0,720.0,0.0,0.0,563.0,0.0,2729.0,100.0
42.39,0.0,704.0,0.0,0.0,593.0,0.0,2580.0,100.0
42.45,0.0,695.0,0.0,0.0,640.0,0.0,2481.0,100.0
42.49,0.0,675.0,0.0,0.0,697.0,0.0,2467.0,100.0
42.49,0.0,700.0,0.0,0.0,774.0,0.0,2457.0,100.0
42.49,0.0,704.0,0.0,0.0,854.0,0.0,2461.0,100.0
42.51,0.0,709.0,0.0,0.0,899.0,0.0,2499.0,100.0
42.49,0.0,544.0,0.0,0.0,901.0,0.0,2492.0,100.0
42.45,0.0,718.0,0.0,0.0,900.0,0.0,2505.0,100.0
42.57,0.0,704.0,0.0,0.0,911.0,0.0,2506.0,100.0
42.59,0.0,704.0,0.0,0.0,910.0,0.0,2527.0,100.0
42.53,0.0,710.0,0.0,0.0,903.0,0.0,2537.0,100.0
42.49,0.0,703.0,0.0,0.0,859.0,0.0,2520.0,100.0
42.45,0.0,694.0,0.0,0.0,874.0,0.0,2509.0,100.0
42.41,0.0,704.0,0.0,0.0,629.0,0.0,2559.0,100.0
42.41,0.0,674.0,0.0,0.0,630.0,0.0,2581.0,100.0
42.41,0.0,635.0,0.0,0.0,535.0,0.0,2649.0,100.0
42.39,0.0,554.0,0.0,0.0,501.0,0.0,2674.0,100.0
42.39,0.0,608.0,0.0,0.0,499.0,0.0,2679.0,100.0
42.29,0.0,618.0,0.0,0.0,485.0,0.0,2703.0,100.0
42.39,0.0,714.0,0.0,0.0,485.0,0.0,2712.0,100.0
42.29,0.0,602.0,0.0,0.0,476.0,0.0,2709.0,100.0
42.33,0.0,587.0,0.0,0.0,454.0,0.0,2725.0,100.0
42.33,0.0,560.0,0.0,0.0,404.0,0.0,2749.0,100.0
42.29,0.0,490.0,0.0,0.0,433.0,0.0,2783.0,100.0
42.31,0.0,511.0,0.0,0.0,421.0,0.0,2780.0,100.0
42.29,0.0,524.0,0.0,0.0,433.0,0.0,2791.0,100.0
42.29,0.0,511.0,0.0,0.0,409.0,0.0,2815.0,100.0
42.29,0.0,464.0,0.0,0.0,413.0,0.0,2835.0,100.0
42.31,0.0,474.0,0.0,0.0,423.0,0.0,2817.0,100.0
42.31,0.0,442.0,0.0,0.0,421.0,0.0,2817.0,100.0
42.33,0.0,368.0,0.0,0.0,416.0,0.0,2834.0,100.0
42.33,0.0,380.0,0.0,0.0,403.0,0.0,2818.0,100.0
42.39,0.0,384.0,0.0,0.0,415.0,0.0,2825.0,100.0
42.43,0.0,393.0,0.0,0.0,419.0,0.0,2830.0,100.0
42.41,0.0,391.0,0.0,0.0,383.0,0.0,2829.0,100.0
42.53,0.0,395.0,0.0,0.0,431.0,0.0,2836.0,100.0
42.49,0.0,390.0,0.0,0.0,420.0,0.0,2843.0,100.0
42.45,0.0,383.0,0.0,0.0,418.0,0.0,2851.0,100.0
42.49,0.0,373.0,0.0,0.0,416.0,0.0,2841.0,100.0
42.43,0.0,383.0,0.0,0.0,430.0,0.0,2847.0,100.0
42.45,0.0,453.0,0.0,0.0,419.0,0.0,2854.0,100.0
42.43,0.0,391.0,0.0,0.0,422.0,0.0,2848.0,100.0
42.39,0.0,394.0,0.0,0.0,436.0,0.0,2847.0,100.0
42.39,0.0,389.0,0.0,0.0,423.0,0.0,2855.0,100.0
42.33,0.0,387.0,0.0,0.0,415.0,0.0,2856.0,100.0
42.35,0.0,395.0,0.0,0.0,427.0,0.0,2870.0,100.0
42.41,0.0,397.0,0.0,0.0,435.0,0.0,2862.0,100.0
42.35,0.0,393.0,0.0,0.0,432.0,0.0,2863.0,100.0
42.35,0.0,396.0,0.0,0.0,432.0,0.0,2862.0,100.0
42.33,0.0,393.0,0.0,0.0,432.0,0.0,2876.0,100.0
42.33,0.0,378.0,0.0,0.0,429.0,0.0,2871.0,100.0
42.41,0.0,402.0,0.0,0.0,434.0,0.0,2887.0,100.0
42.45,0.0,401.0,0.0,0.0,446.0,0.0,2876.0,100.0
42.43,0.0,330.0,0.0,0.0,432.0,0.0,2871.0,100.0
42.39,0.0,390.0,0.0,0.0,432.0,0.0,2885.0,100.0
42.31,0.0,368.0,0.0,0.0,433.0,0.0,2870.0,100.0
42.35,0.0,389.0,0.0,0.0,432.0,0.0,2880.0,100.0
42.39,0.0,387.0,0.0,0.0,431.0,0.0,2874.0,100.0
42.43,0.0,390.0,0.0,0.0,437.0,0.0,2885.0,100.0
42.35,0.0,400.0,0.0,0.0,448.0,0.0,2888.0,100.0
42.41,0.0,395.0,0.0,0.0,432.0,0.0,2883.0,100.0
42.45,0.0,395.0,0.0,0.0,438.0,0.0,2892.0,100.0
42.39,0.0,401.0,0.0,0.0,441.0,0.0,2883.0,100.0
42.43,0.0,398.0,0.0,0.0,441.0,0.0,2891.0,100.0
42.43,0.0,401.0,0.0,0.0,444.0,0.0,2883.0,100.0
42.45,0.0,395.0,0.0,0.0,443.0,0.0,2892.0,100.0
42.33,0.0,391.0,0.0,0.0,432.0,0.0,2893.0,100.0
42.39,0.0,394.0,0.0,0.0,448.0,0.0,2882.0,100.0
42.39,0.0,393.0,0.0,0.0,435.0,0.0,2887.0,100.0
42.39,0.0,405.0,0.0,0.0,438.0,0.0,2888.0,100.0
42.35,0.0,393.0,0.0,0.0,433.0,0.0,2884.0,100.0
42.33,0.0,398.0,0.0,0.0,432.0,0.0,2892.0,100.0
42.35,0.0,390.0,0.0,0.0,444.0,0.0,2885.0,100.0
42.35,0.0,392.0,0.0,0.0,307.0,0.0,2886.0,100.0
42.35,0.0,400.0,0.0,0.0,432.0,0.0,2893.0,100.0
42.33,0.0,396.0,0.0,0.0,438.0,0.0,2905.0,100.0
42.29,0.0,394.0,0.0,0.0,445.0,0.0,2898.0,100.0
42.31,0.0,387.0,0.0,0.0,433.0,0.0,2898.0,100.0
42.33,0.0,416.0,0.0,0.0,442.0,0.0,2896.0,100.0
42.33,0.0,400.0,0.0,0.0,443.0,0.0,2895.0,100.0
42.33,0.0,0.0,0.0,0.0,0.0,0.0,2899.0,15.0
42.19,0.0,0.0,0.0,0.0,0.0,0.0,0.0,15.0
27.37,0.0,0.0,0.0,0.0,0.0,0.0,0.0,15.0
27.29,0.0,0.0,0.0,0.0,0.0,0.0,0.0,15.0
27.17,0.0,0.0,0.0,0.0,0.0,0.0,0.0,15.0
27.17,0.0,0.0,0.0,0.0,0.0,0.0,0.0,15.0
27.17,0.0,0.0,0.0,0.0,0.0,0.0,0.0,15.0
27.15,0.0,0.0,0.0,0.0,0.0,0.0,0.0,15.0
27.15,0.0,0.0,0.0,0.0,0.0,0.0,0.0,15.0
27.21,0.0,0.0,0.0,0.0,0.0,0.0,0.0,15.0
27.09,0.0,0.0,0.0,0.0,0.0,0.0,0.0,15.0
26.91,0.0,0.0,0.0,0.0,0.0,0.0,0.0,15.0
26.97,0.0,0.0,0.0,0.0,0.0,0.0,0.0,15.0
27.03,0.0,0.0,0.0,0.0,0.0,0.0,0.0,15.0
27.05,0.0,0.0,0.0,0.0,0.0,0.0,0.0,15.0
27.05,0.0,0.0,0.0,0.0,0.0,0.0,0.0,15.0
27.05,0.0,0.0,0.0,0.0,0.0,0.0,0.0,15.0
26.99,0.0,0.0,0.0,0.0,0.0,0.0,0.0,15.0
26.93,0.0,0.0,0.0,0.0,0.0,0.0,0.0,15.0
26.97,0.0,0.0,0.0,0.0,0.0,0.0,0.0,15.0
26.93,0.0,0.0,0.0,0.0,0.0,0.0,0.0,15.0
26.97,0.0,0.0,0.0,0.0,0.0,0.0,0.0,15.0
26.93,0.0,0.0,0.0,0.0,0.0,0.0,0.0,15.0
26.97,0.0,0.0,0.0,0.0,0.0,0.0,0.0,15.0
26.99,0.0,0.0,0.0,0.0,0.0,0.0,0.0,15.0
26.93,0.0,0.0,0.0,0.0,0.0,0.0,0.0,15.0
26.97,0.0,0.0,0.0,0.0,0.0,0.0,0.0,15.0
26.97,0.0,0.0,0.0,0.0,0.0,0.0,0.0,15.0
26.97,0.0,0.0,0.0,0.0,0.0,0.0,0.0,15.0
26.97,0.0,0.0,0.0,0.0,0.0,0.0,0.0,15.0
26.97,0.0,0.0,0.0,0.0,0.0,0.0,0.0,15.0
26.91,0.0,0.0,0.0,0.0,0.0,0.0,0.0,15.0
26.99,0.0,0.0,0.0,0.0,0.0,0.0,0.0,15.0
26.99,0.0,0.0,0.0,0.0,0.0,0.0,0.0,15.0
27.03,0.0,0.0,0.0,0.0,0.0,0.0,0.0,15.0
27.03,0.0,0.0,0.0,0.0,0.0,0.0,0.0,15.0
27.03,0.0,0.0,0.0,0.0,0.0,0.0,0.0,15.0
26.97,0.0,0.0,0.0,0.0,0.0,0.0,0.0,15.0
27.03,0.0,0.0,0.0,0.0,0.0,0.0,0.0,15.0
26.99,0.0,0.0,0.0,0.0,0.0,0.0,0.0,15.0
27.03,0.0,0.0,0.0,0.0,0.0,0.0,0.0,15.0
26.99,0.0,0.0,0.0,0.0,0.0,0.0,0.0,15.0
26.97,0.0,0.0,0.0,0.0,0.0,0.0,0.0,15.0
26.97,0.0,0.0,0.0,0.0,0.0,0.0,0.0,15.0
26.93,0.0,0.0,0.0,0.0,0.0,0.0,0.0,15.0
27.17,0.0,0.0,0.0,0.0,0.0,0.0,0.0,15.0
27.17,0.0,0.0,0.0,0.0,0.0,0.0,0.0,15.0
27.23,0.0,0.0,0.0,0.0,0.0,0.0,0.0,15.0
27.25,0.0,0.0,0.0,0.0,0.0,0.0,0.0,15.0
27.17,0.0,0.0,0.0,0.0,0.0,0.0,0.0,15.0
27.17,0.0,0.0,0.0,0.0,0.0,0.0,0.0,15.0
27.17,0.0,0.0,0.0,0.0,0.0,0.0,0.0,22.0
27.23,0.0,0.0,0.0,0.0,0.0,0.0,0.0,31.0
27.23,0.0,0.0,0.0,0.0,0.0,0.0,0.0,40.0
27.31,0.0,0.0,0.0,0.0,0.0,0.0,1.0,49.0
27.29,0.0,0.0,0.0,0.0,0.0,0.0,0.0,58.0
27.31,0.0,0.0,0.0,0.0,0.0,0.0,0.0,69.0
27.25,0.0,0.0,0.0,0.0,0.0,0.0,0.0,79.0
27.21,0.0,0.0,0.0,0.0,0.0,0.0,1984.0,90.0
27.17,0.0,0.0,0.0,0.0,0.0,0.0,2367.0,93.0
27.17,0.0,0.0,0.0,0.0,0.0,0.0,2408.0,93.0
27.17,0.0,0.0,0.0,0.0,0.0,0.0,2433.0,93.0
27.15,0.0,0.0,0.0,0.0,0.0,0.0,2453.0,93.0
27.17,0.0,0.0,0.0,0.0,0.0,0.0,2465.0,93.0
27.11,0.0,0.0,0.0,0.0,0.0,0.0,2479.0,93.0
27.11,0.0,0.0,0.0,0.0,0.0,0.0,2309.0,93.0
27.11,0.0,0.0,0.0,0.0,0.0,0.0,2222.0,93.0
27.17,0.0,0.0,0.0,0.0,0.0,0.0,2217.0,93.0
27.15,0.0,0.0,0.0,0.0,0.0,0.0,2210.0,93.0
27.15,0.0,0.0,0.0,0.0,0.0,0.0,2227.0,93.0
27.15,0.0,0.0,0.0,0.0,0.0,0.0,2237.0,93.0
27.17,0.0,0.0,0.0,0.0,0.0,0.0,2246.0,93.0
27.17,0.0,0.0,0.0,0.0,0.0,0.0,2255.0,93.0
27.25,0.0,0.0,0.0,0.0,0.0,0.0,2247.0,93.0
27.23,0.0,0.0,0.0,432.0,0.0,0.0,2254.0,93.0
27.17,0.0,0.0,0.0,0.0,0.0,0.0,2255.0,100.0
27.23,0.0,0.0,0.0,0.0,0.0,0.0,2260.0,100.0
27.23,0.0,0.0,0.0,0.0,0.0,0.0,2270.0,100.0
27.17,0.0,0.0,0.0,0.0,0.0,0.0,2266.0,100.0
27.17,0.0,0.0,0.0,0.0,0.0,0.0,2263.0,100.0
27.17,0.0,0.0,0.0,0.0,0.0,0.0,2289.0,100.0
27.21,0.0,0.0,0.0,0.0,0.0,0.0,2280.0,100.0
27.17,0.0,0.0,0.0,0.0,0.0,0.0,2281.0,100.0
27.17,0.0,0.0,0.0,0.0,0.0,0.0,2263.0,100.0
27.11,0.0,0.0,0.0,0.0,0.0,0.0,2264.0,100.0
27.17,0.0,0.0,0.0,0.0,0.0,0.0,2272.0,100.0
27.11,0.0,0.0,0.0,0.0,0.0,0.0,2281.0,100.0
27.15,0.0,0.0,0.0,0.0,0.0,0.0,2283.0,100.0
27.29,0.0,0.0,0.0,0.0,0.0,0.0,2286.0,100.0
27.29,0.0,0.0,0.0,0.0,0.0,0.0,2293.0,100.0
27.29,0.0,0.0,0.0,0.0,0.0,0.0,2302.0,100.0
27.23,0.0,0.0,0.0,0.0,0.0,0.0,2289.0,100.0
27.17,0.0,0.0,0.0,0.0,0.0,0.0,2280.0,100.0
27.25,0.0,0.0,0.0,0.0,0.0,0.0,2284.0,100.0
27.37,0.0,0.0,0.0,0.0,0.0,0.0,2296.0,100.0
27.41,0.0,0.0,0.0,0.0,0.0,0.0,2293.0,100.0
27.37,0.0,0.0,0.0,0.0,0.0,0.0,2286.0,100.0
27.37,0.0,0.0,0.0,0.0,0.0,0.0,2284.0,100.0
27.37,0.0,0.0,0.0,0.0,0.0,0.0,2287.0,100.0
27.41,144.0,0.0,0.0,0.0,0.0,0.0,2295.0,100.0
27.37,0.0,0.0,0.0,0.0,0.0,0.0,2299.0,100.0
27.35,0.0,0.0,0.0,0.0,0.0,0.0,2293.0,100.0
27.41,0.0,0.0,0.0,0.0,0.0,0.0,2297.0,100.0
27.37,0.0,0.0,0.0,0.0,0.0,0.0,2304.0,100.0
27.43,0.0,0.0,0.0,0.0,0.0,0.0,2302.0,100.0
27.37,0.0,0.0,0.0,0.0,0.0,0.0,2290.0,100.0
27.37,0.0,0.0,0.0,0.0,0.0,0.0,2297.0,100.0
27.37,0.0,0.0,0.0,0.0,0.0,0.0,2299.0,100.0
27.37,0.0,0.0,0.0,0.0,0.0,0.0,2307.0,100.0
27.37,0.0,0.0,0.0,0.0,0.0,0.0,2304.0,100.0
27.37,0.0,0.0,0.0,0.0,0.0,0.0,2309.0,100.0
27.35,0.0,0.0,0.0,0.0,0.0,0.0,2303.0,100.0
27.41,0.0,0.0,0.0,0.0,0.0,0.0,2297.0,100.0
27.35,0.0,0.0,0.0,0.0,0.0,0.0,2305.0,100.0
27.35,0.0,0.0,0.0,0.0,0.0,0.0,2303.0,100.0
27.31,0.0,0.0,0.0,0.0,0.0,0.0,2299.0,100.0
27.31,0.0,0.0,0.0,0.0,0.0,0.0,2309.0,100.0
27.35,0.0,0.0,0.0,0.0,0.0,0.0,2304.0,100.0
27.35,0.0,0.0,0.0,0.0,0.0,0.0,2303.0,100.0
27.29,0.0,0.0,0.0,0.0,0.0,96.0,2316.0,100.0
27.35,0.0,0.0,0.0,0.0,0.0,0.0,2311.0,100.0
27.37,0.0,0.0,0.0,0.0,0.0,0.0,2314.0,100.0
27.29,0.0,0.0,0.0,0.0,0.0,0.0,2314.0,100.0
27.31,0.0,0.0,0.0,0.0,0.0,0.0,2312.0,100.0
27.37,0.0,0.0,0.0,0.0,0.0,0.0,2304.0,100.0
27.31,0.0,0.0,0.0,0.0,0.0,0.0,2312.0,100.0
27.35,0.0,0.0,0.0,0.0,0.0,0.0,2313.0,100.0
27.37,0.0,0.0,0.0,0.0,0.0,0.0,2311.0,100.0
27.31,0.0,0.0,0.0,0.0,0.0,0.0,2318.0,100.0
27.29,0.0,0.0,0.0,0.0,0.0,0.0,2324.0,100.0
27.29,0.0,0.0,0.0,0.0,0.0,0.0,2321.0,100.0
27.35,0.0,0.0,0.0,0.0,0.0,0.0,2321.0,100.0
27.35,0.0,0.0,0.0,0.0,0.0,0.0,2329.0,100.0
27.37,0.0,0.0,0.0,0.0,0.0,0.0,2331.0,100.0
27.25,0.0,0.0,0.0,0.0,0.0,0.0,2323.0,100.0
27.29,0.0,0.0,0.0,0.0,0.0,0.0,2324.0,100.0
27.25,0.0,0.0,0.0,0.0,0.0,0.0,2327.0,100.0
27.21,0.0,0.0,0.0,0.0,0.0,0.0,2322.0,100.0
27.35,0.0,0.0,0.0,0.0,0.0,0.0,2325.0,100.0
27.31,0.0,0.0,0.0,0.0,0.0,0.0,2327.0,100.0
27.31,0.0,0.0,0.0,0.0,0.0,0.0,2323.0,100.0
27.31,0.0,0.0,0.0,0.0,0.0,0.0,2322.0,100.0
27.31,0.0,0.0,0.0,0.0,0.0,0.0,2321.0,100.0
27.25,0.0,0.0,0.0,0.0,0.0,0.0,2317.0,100.0
27.25,0.0,0.0,0.0,0.0,0.0,0.0,2315.0,100.0
27.29,0.0,0.0,0.0,0.0,0.0,0.0,2319.0,100.0
27.31,0.0,0.0,0.0,0.0,0.0,0.0,2332.0,100.0
27.29,0.0,0.0,0.0,0.0,0.0,0.0,9.0,15.0
27.17,0.0,0.0,0.0,0.0,0.0,0.0,0.0,15.0
26.67,0.0,0.0,0.0,0.0,0.0,0.0,0.0,15.0
26.65,0.0,0.0,0.0,0.0,0.0,0.0,0.0,15.0
26.73,0.0,0.0,0.0,0.0,0.0,0.0,0.0,15.0
26.65,0.0,0.0,0.0,0.0,0.0,0.0,0.0,15.0
26.65,0.0,0.0,0.0,0.0,0.0,0.0,0.0,15.0
26.77,0.0,0.0,64.0,0.0,0.0,0.0,0.0,15.0
26.93,0.0,0.0,0.0,0.0,0.0,0.0,0.0,15.0
26.91,0.0,0.0,0.0,0.0,0.0,0.0,0.0,15.0
26.67,0.0,0.0,0.0,0.0,0.0,0.0,0.0,15.0
26.61,0.0,0.0,0.0,0.0,0.0,0.0,0.0,15.0
26.67,0.0,0.0,0.0,0.0,0.0,0.0,0.0,15.0
26.67,0.0,0.0,0.0,0.0,0.0,0.0,0.0,15.0
26.67,0.0,0.0,0.0,0.0,0.0,0.0,0.0,15.0
26.71,0.0,0.0,0.0,0.0,0.0,0.0,0.0,15.0
26.67,0.0,0.0,0.0,0.0,0.0,0.0,0.0,15.0
26.61,0.0,0.0,0.0,0.0,0.0,0.0,0.0,15.0
26.71,0.0,0.0,0.0,0.0,0.0,0.0,0.0,15.0
26.67,0.0,0.0,0.0,0.0,0.0,0.0,0.0,15.0
26.71,0.0,0.0,0.0,0.0,0.0,0.0,0.0,15.0
26.65,0.0,0.0,0.0,0.0,0.0,0.0,0.0,15.0
26.65,0.0,0.0,0.0,0.0,0.0,0.0,0.0,15.0
26.71,0.0,0.0,0.0,0.0,0.0,0.0,0.0,15.0
26.67,0.0,0.0,0.0,0.0,0.0,0.0,0.0,15.0
