tempMLX,FSR_A1,FSR_A2,FSR_A3,FSR_B1,FSR_B2,FSR_B3,FSR_C,porcAper
0.0,0.0,0.0,0.0,0.0,0.0,0.0,0.0,15.0
0.0,0.0,0.0,0.0,0.0,0.0,0.0,0.0,15.0
0.0,0.0,0.0,0.0,0.0,0.0,0.0,0.0,15.0
26.91,0.0,0.0,0.0,0.0,0.0,0.0,0.0,15.0
26.91,0.0,0.0,0.0,0.0,0.0,0.0,0.0,15.0
26.91,0.0,0.0,0.0,0.0,0.0,0.0,0.0,15.0
26.97,0.0,0.0,0.0,0.0,0.0,0.0,0.0,15.0
26.91,0.0,0.0,0.0,0.0,0.0,0.0,0.0,15.0
26.87,0.0,0.0,0.0,0.0,0.0,0.0,0.0,15.0
26.87,0.0,0.0,0.0,0.0,0.0,0.0,0.0,15.0
26.91,0.0,0.0,0.0,0.0,0.0,0.0,0.0,15.0
26.91,0.0,0.0,0.0,0.0,0.0,0.0,0.0,15.0
26.87,0.0,0.0,0.0,0.0,0.0,0.0,0.0,15.0
26.91,0.0,0.0,0.0,0.0,0.0,0.0,0.0,15.0
26.91,0.0,0.0,0.0,0.0,0.0,0.0,0.0,15.0
26.87,0.0,0.0,0.0,0.0,0.0,0.0,0.0,15.0
26.87,0.0,0.0,0.0,0.0,0.0,0.0,0.0,15.0
26.91,0.0,0.0,0.0,0.0,0.0,0.0,0.0,15.0
26.91,0.0,0.0,0.0,0.0,0.0,0.0,0.0,15.0
26.87,0.0,0.0,0.0,0.0,0.0,0.0,0.0,15.0
26.85,0.0,0.0,0.0,0.0,0.0,0.0,0.0,15.0
26.91,0.0,0.0,0.0,0.0,0.0,0.0,0.0,15.0
26.91,0.0,0.0,0.0,0.0,0.0,0.0,0.0,15.0
26.91,0.0,0.0,0.0,0.0,0.0,0.0,0.0,15.0
27.03,0.0,0.0,0.0,0.0,0.0,0.0,0.0,15.0
26.97,0.0,0.0,0.0,0.0,0.0,0.0,0.0,15.0
26.87,0.0,0.0,0.0,0.0,0.0,0.0,0.0,15.0
26.83,0.0,0.0,0.0,0.0,0.0,0.0,0.0,15.0
26.87,0.0,0.0,0.0,0.0,0.0,0.0,0.0,15.0
26.85,0.0,0.0,0.0,0.0,0.0,0.0,0.0,15.0
26.93,0.0,0.0,0.0,0.0,0.0,0.0,0.0,15.0
26.83,0.0,0.0,0.0,0.0,0.0,0.0,0.0,15.0
26.85,0.0,0.0,0.0,0.0,0.0,0.0,0.0,15.0
26.87,0.0,0.0,0.0,0.0,0.0,0.0,0.0,15.0
26.85,0.0,0.0,0.0,0.0,0.0,0.0,0.0,15.0
26.91,0.0,0.0,0.0,0.0,0.0,0.0,0.0,15.0
26.91,0.0,0.0,0.0,0.0,0.0,0.0,0.0,15.0
26.91,0.0,0.0,0.0,0.0,0.0,0.0,0.0,15.0
26.85,0.0,0.0,0.0,0.0,0.0,0.0,0.0,15.0
26.87,0.0,0.0,0.0,0.0,0.0,0.0,0.0,15.0
26.87,0.0,0.0,0.0,0.0,0.0,0.0,0.0,15.0
26.91,0.0,0.0,0.0,0.0,0.0,0.0,0.0,15.0
26.91,0.0,0.0,0.0,0.0,0.0,0.0,0.0,15.0
26.91,0.0,0.0,0.0,0.0,0.0,0.0,0.0,15.0
26.91,0.0,0.0,0.0,0.0,0.0,0.0,0.0,15.0
26.91,0.0,0.0,0.0,0.0,0.0,0.0,0.0,15.0
26.93,0.0,0.0,0.0,0.0,0.0,0.0,0.0,15.0
26.97,0.0,0.0,0.0,0.0,0.0,0.0,0.0,15.0
26.91,0.0,0.0,0.0,0.0,0.0,0.0,0.0,15.0
26.87,0.0,0.0,0.0,0.0,0.0,0.0,0.0,15.0
26.97,0.0,0.0,0.0,0.0,0.0,0.0,0.0,15.0
26.87,0.0,0.0,0.0,0.0,0.0,0.0,0.0,15.0
26.91,0.0,0.0,0.0,0.0,0.0,0.0,0.0,15.0
26.91,0.0,0.0,0.0,0.0,0.0,0.0,0.0,15.0
26.91,0.0,0.0,0.0,0.0,0.0,0.0,0.0,15.0
26.91,0.0,0.0,0.0,0.0,0.0,0.0,0.0,15.0
26.91,0.0,0.0,0.0,0.0,0.0,0.0,0.0,15.0
26.91,0.0,0.0,0.0,0.0,0.0,0.0,0.0,15.0
26.93,0.0,0.0,0.0,0.0,0.0,0.0,0.0,15.0
27.03,0.0,0.0,0.0,0.0,0.0,0.0,0.0,15.0
26.91,0.0,0.0,0.0,0.0,0.0,0.0,0.0,15.0
26.99,0.0,0.0,0.0,0.0,0.0,0.0,0.0,15.0
26.97,0.0,0.0,0.0,0.0,0.0,0.0,0.0,15.0
26.91,0.0,0.0,0.0,0.0,0.0,0.0,0.0,15.0
26.91,0.0,0.0,0.0,0.0,0.0,0.0,0.0,15.0
26.93,0.0,0.0,0.0,0.0,0.0,0.0,0.0,15.0
26.91,0.0,0.0,0.0,0.0,0.0,0.0,0.0,15.0
26.97,0.0,0.0,0.0,0.0,0.0,0.0,0.0,15.0
26.97,0.0,0.0,0.0,0.0,0.0,0.0,0.0,15.0
26.91,0.0,0.0,0.0,0.0,0.0,0.0,0.0,15.0
26.93,0.0,0.0,0.0,0.0,0.0,0.0,0.0,15.0
26.91,0.0,0.0,0.0,0.0,0.0,0.0,0.0,15.0
26.97,0.0,0.0,0.0,0.0,0.0,0.0,0.0,15.0
26.91,0.0,0.0,0.0,0.0,0.0,0.0,0.0,15.0
26.97,0.0,0.0,0.0,0.0,0.0,0.0,0.0,15.0
27.03,0.0,0.0,0.0,0.0,0.0,0.0,0.0,15.0
26.99,0.0,0.0,0.0,0.0,0.0,0.0,0.0,15.0
26.97,0.0,0.0,0.0,0.0,0.0,0.0,0.0,15.0
26.91,0.0,0.0,0.0,0.0,0.0,0.0,0.0,15.0
26.91,0.0,0.0,0.0,0.0,0.0,0.0,0.0,15.0
27.05,0.0,0.0,0.0,0.0,0.0,0.0,0.0,15.0
26.93,0.0,0.0,0.0,0.0,0.0,0.0,0.0,15.0
26.93,0.0,0.0,0.0,0.0,0.0,0.0,0.0,15.0
26.91,0.0,0.0,0.0,0.0,0.0,0.0,0.0,15.0
26.87,0.0,0.0,0.0,0.0,0.0,0.0,0.0,15.0
26.87,0.0,0.0,0.0,0.0,0.0,0.0,0.0,15.0
26.87,0.0,0.0,0.0,0.0,0.0,0.0,0.0,15.0
26.85,0.0,0.0,0.0,0.0,0.0,0.0,0.0,15.0
26.93,0.0,0.0,0.0,0.0,0.0,0.0,0.0,15.0
26.93,0.0,0.0,0.0,0.0,0.0,0.0,0.0,15.0
26.93,0.0,0.0,0.0,0.0,0.0,0.0,0.0,15.0
26.91,0.0,0.0,0.0,0.0,0.0,0.0,0.0,15.0
26.87,0.0,0.0,0.0,0.0,0.0,0.0,0.0,15.0
26.91,0.0,0.0,0.0,0.0,0.0,0.0,0.0,15.0
26.99,0.0,0.0,0.0,0.0,0.0,0.0,0.0,15.0
26.99,0.0,0.0,0.0,0.0,0.0,0.0,0.0,15.0
26.93,0.0,0.0,0.0,0.0,0.0,0.0,0.0,15.0
26.93,0.0,0.0,0.0,0.0,0.0,0.0,0.0,15.0
26.91,0.0,0.0,0.0,0.0,0.0,0.0,0.0,15.0
26.91,0.0,0.0,0.0,0.0,0.0,0.0,0.0,15.0
26.97,0.0,0.0,0.0,0.0,0.0,0.0,0.0,15.0
26.91,0.0,0.0,0.0,0.0,0.0,0.0,0.0,15.0
27.03,0.0,0.0,0.0,0.0,0.0,0.0,0.0,15.0
26.99,0.0,0.0,0.0,0.0,0.0,0.0,0.0,15.0
27.03,0.0,0.0,0.0,0.0,0.0,0.0,0.0,15.0
26.93,0.0,0.0,0.0,0.0,0.0,0.0,0.0,15.0
26.93,0.0,0.0,0.0,0.0,0.0,0.0,0.0,15.0
26.85,0.0,0.0,0.0,0.0,0.0,0.0,0.0,15.0
26.91,0.0,0.0,0.0,0.0,0.0,0.0,0.0,15.0
26.97,0.0,0.0,0.0,0.0,0.0,0.0,0.0,15.0
26.93,0.0,0.0,0.0,0.0,0.0,0.0,0.0,15.0
26.97,0.0,0.0,0.0,0.0,0.0,0.0,0.0,15.0
26.99,0.0,0.0,0.0,0.0,0.0,0.0,0.0,15.0
26.93,0.0,0.0,0.0,0.0,0.0,0.0,0.0,15.0
26.97,0.0,0.0,0.0,0.0,0.0,0.0,0.0,15.0
26.97,0.0,0.0,0.0,0.0,0.0,0.0,0.0,15.0
26.93,0.0,0.0,0.0,0.0,0.0,0.0,0.0,15.0
26.93,0.0,0.0,0.0,0.0,0.0,0.0,0.0,15.0
26.99,0.0,0.0,0.0,0.0,0.0,0.0,0.0,15.0
27.09,0.0,0.0,0.0,0.0,0.0,0.0,0.0,15.0
26.97,0.0,0.0,0.0,0.0,0.0,0.0,0.0,15.0
27.03,0.0,0.0,0.0,0.0,0.0,0.0,0.0,15.0
27.03,0.0,0.0,0.0,0.0,0.0,0.0,0.0,15.0
26.91,0.0,0.0,0.0,0.0,0.0,0.0,0.0,15.0
26.97,0.0,0.0,0.0,0.0,0.0,0.0,0.0,15.0
26.97,0.0,0.0,0.0,0.0,0.0,0.0,0.0,15.0
26.93,0.0,0.0,0.0,0.0,0.0,0.0,0.0,15.0
26.97,0.0,0.0,0.0,0.0,0.0,0.0,0.0,15.0
26.93,0.0,0.0,0.0,0.0,0.0,0.0,0.0,15.0
26.93,0.0,0.0,0.0,0.0,0.0,0.0,0.0,15.0
26.91,0.0,0.0,0.0,0.0,0.0,0.0,0.0,15.0
26.87,0.0,0.0,0.0,0.0,0.0,0.0,0.0,15.0
26.87,0.0,0.0,0.0,0.0,0.0,0.0,0.0,15.0
26.87,0.0,0.0,0.0,0.0,0.0,0.0,0.0,15.0
26.85,0.0,0.0,0.0,0.0,0.0,0.0,0.0,15.0
26.87,0.0,0.0,0.0,0.0,0.0,0.0,0.0,15.0
26.85,0.0,0.0,0.0,0.0,0.0,0.0,0.0,15.0
26.93,0.0,0.0,0.0,0.0,0.0,0.0,0.0,15.0
26.87,0.0,0.0,0.0,0.0,0.0,0.0,0.0,15.0
26.87,0.0,0.0,0.0,0.0,0.0,0.0,0.0,15.0
26.91,0.0,0.0,0.0,0.0,0.0,0.0,0.0,15.0
26.97,0.0,0.0,0.0,0.0,0.0,0.0,0.0,15.0
26.91,0.0,0.0,0.0,0.0,0.0,0.0,0.0,15.0
27.31,0.0,0.0,0.0,0.0,0.0,0.0,0.0,15.0
27.61,0.0,0.0,0.0,0.0,0.0,0.0,0.0,15.0
27.41,0.0,0.0,0.0,0.0,0.0,0.0,0.0,15.0
27.47,0.0,0.0,0.0,0.0,0.0,0.0,0.0,15.0
27.11,0.0,0.0,0.0,0.0,0.0,0.0,0.0,25.0
27.11,0.0,0.0,0.0,0.0,0.0,0.0,0.0,35.0
27.25,0.0,0.0,0.0,0.0,0.0,0.0,0.0,44.0
27.23,0.0,0.0,0.0,0.0,0.0,0.0,0.0,56.0
27.15,0.0,0.0,0.0,0.0,0.0,0.0,0.0,66.0
27.15,0.0,0.0,0.0,0.0,0.0,0.0,0.0,76.0
26.99,0.0,0.0,0.0,0.0,0.0,0.0,0.0,84.0
27.03,0.0,0.0,0.0,0.0,0.0,0.0,235.0,94.0
27.03,0.0,0.0,0.0,0.0,0.0,0.0,290.0,100.0
26.93,0.0,0.0,0.0,0.0,0.0,0.0,290.0,100.0
27.03,0.0,0.0,0.0,0.0,0.0,0.0,299.0,100.0
26.93,0.0,0.0,0.0,0.0,0.0,0.0,305.0,100.0
26.99,0.0,0.0,0.0,0.0,0.0,0.0,301.0,100.0
26.99,0.0,0.0,0.0,0.0,0.0,0.0,311.0,100.0
26.91,0.0,0.0,0.0,0.0,0.0,0.0,316.0,100.0
26.93,0.0,0.0,0.0,0.0,0.0,0.0,313.0,100.0
26.97,0.0,0.0,0.0,0.0,0.0,0.0,328.0,100.0
27.05,0.0,0.0,0.0,0.0,0.0,0.0,328.0,100.0
26.91,0.0,0.0,0.0,0.0,0.0,0.0,330.0,100.0
26.97,0.0,0.0,0.0,0.0,0.0,0.0,327.0,100.0
26.93,0.0,0.0,0.0,0.0,0.0,0.0,327.0,100.0
26.97,0.0,0.0,0.0,0.0,0.0,0.0,326.0,100.0
26.87,0.0,0.0,0.0,0.0,0.0,0.0,336.0,100.0
26.85,0.0,0.0,0.0,0.0,0.0,0.0,333.0,100.0
26.97,0.0,0.0,0.0,0.0,0.0,0.0,336.0,100.0
26.87,0.0,0.0,0.0,0.0,0.0,0.0,330.0,100.0
26.93,0.0,0.0,0.0,0.0,0.0,0.0,338.0,100.0
26.93,0.0,0.0,0.0,0.0,0.0,0.0,340.0,100.0
26.85,0.0,0.0,0.0,0.0,0.0,0.0,343.0,100.0
26.97,0.0,0.0,0.0,0.0,0.0,0.0,350.0,100.0
26.97,0.0,0.0,0.0,0.0,0.0,0.0,356.0,100.0
26.99,0.0,0.0,0.0,0.0,0.0,0.0,354.0,100.0
26.99,0.0,0.0,0.0,0.0,0.0,0.0,363.0,100.0
26.91,0.0,0.0,0.0,0.0,0.0,0.0,360.0,100.0
26.97,0.0,0.0,0.0,0.0,0.0,0.0,365.0,100.0
26.93,0.0,0.0,0.0,0.0,0.0,0.0,362.0,100.0
26.93,0.0,0.0,0.0,0.0,0.0,0.0,360.0,100.0
26.79,0.0,0.0,0.0,0.0,0.0,0.0,368.0,100.0
26.77,0.0,0.0,0.0,0.0,0.0,0.0,355.0,100.0
26.77,0.0,0.0,0.0,0.0,0.0,0.0,360.0,100.0
26.77,0.0,0.0,0.0,0.0,0.0,0.0,356.0,100.0
26.71,0.0,0.0,0.0,0.0,0.0,0.0,349.0,100.0
26.79,0.0,0.0,0.0,0.0,0.0,0.0,354.0,100.0
26.77,0.0,0.0,0.0,0.0,0.0,0.0,364.0,100.0
26.77,0.0,0.0,0.0,0.0,0.0,0.0,363.0,100.0
26.87,0.0,0.0,0.0,0.0,0.0,0.0,368.0,100.0
26.85,0.0,0.0,0.0,0.0,0.0,0.0,360.0,100.0
26.83,0.0,0.0,0.0,0.0,0.0,0.0,358.0,100.0
26.85,0.0,0.0,0.0,0.0,0.0,0.0,370.0,100.0
26.85,0.0,0.0,0.0,0.0,0.0,0.0,368.0,100.0
26.85,0.0,0.0,0.0,0.0,0.0,0.0,366.0,100.0
26.85,0.0,0.0,0.0,0.0,0.0,0.0,364.0,100.0
26.83,0.0,0.0,0.0,0.0,0.0,0.0,375.0,100.0
26.83,0.0,0.0,0.0,0.0,0.0,0.0,372.0,100.0
26.73,0.0,0.0,0.0,0.0,0.0,0.0,370.0,100.0
26.79,0.0,0.0,0.0,0.0,0.0,0.0,369.0,100.0
26.77,0.0,0.0,0.0,0.0,0.0,0.0,369.0,100.0
26.73,0.0,0.0,0.0,0.0,0.0,0.0,367.0,100.0
26.71,0.0,0.0,0.0,0.0,0.0,0.0,369.0,100.0
26.71,0.0,0.0,0.0,0.0,0.0,0.0,373.0,100.0
26.71,0.0,0.0,0.0,0.0,0.0,0.0,372.0,100.0
26.59,32.0,0.0,0.0,0.0,0.0,0.0,369.0,100.0
26.73,0.0,0.0,0.0,0.0,0.0,0.0,374.0,100.0
26.71,0.0,0.0,0.0,0.0,0.0,0.0,372.0,100.0
26.77,0.0,0.0,0.0,0.0,0.0,0.0,371.0,100.0
26.71,0.0,0.0,0.0,0.0,0.0,0.0,371.0,100.0
26.65,0.0,0.0,0.0,0.0,0.0,0.0,372.0,100.0
26.71,0.0,0.0,0.0,0.0,0.0,0.0,376.0,100.0
26.67,0.0,0.0,0.0,0.0,0.0,0.0,376.0,100.0
26.71,0.0,0.0,0.0,0.0,0.0,0.0,377.0,100.0
26.71,0.0,0.0,0.0,0.0,0.0,0.0,376.0,100.0
26.79,96.0,0.0,0.0,0.0,0.0,0.0,372.0,100.0
26.73,0.0,0.0,0.0,0.0,0.0,0.0,378.0,100.0
26.71,0.0,0.0,0.0,0.0,0.0,0.0,376.0,100.0
26.61,0.0,0.0,0.0,0.0,0.0,0.0,380.0,100.0
26.73,0.0,0.0,0.0,0.0,0.0,0.0,377.0,100.0
26.71,0.0,0.0,0.0,296.0,0.0,0.0,374.0,100.0
26.71,0.0,0.0,0.0,0.0,0.0,0.0,375.0,100.0
26.71,0.0,0.0,0.0,0.0,0.0,0.0,372.0,100.0
26.71,0.0,0.0,0.0,0.0,0.0,0.0,380.0,100.0
26.71,0.0,0.0,0.0,0.0,0.0,0.0,377.0,100.0
26.71,0.0,0.0,0.0,0.0,0.0,0.0,377.0,100.0
26.67,0.0,0.0,0.0,0.0,0.0,0.0,378.0,100.0
26.65,0.0,0.0,0.0,0.0,0.0,0.0,379.0,100.0
26.59,0.0,0.0,0.0,0.0,0.0,0.0,384.0,100.0
26.61,0.0,0.0,0.0,0.0,0.0,0.0,375.0,100.0
26.67,0.0,0.0,0.0,0.0,0.0,0.0,373.0,100.0
26.67,0.0,0.0,0.0,0.0,0.0,0.0,374.0,100.0
26.71,0.0,0.0,0.0,0.0,0.0,0.0,378.0,100.0
26.61,0.0,0.0,0.0,0.0,0.0,0.0,374.0,100.0
26.65,0.0,0.0,0.0,0.0,0.0,0.0,375.0,100.0
26.55,0.0,0.0,0.0,0.0,0.0,0.0,309.0,15.0
27.05,0.0,0.0,0.0,0.0,0.0,0.0,0.0,20.0
26.97,0.0,0.0,0.0,0.0,0.0,0.0,0.0,29.0
27.03,0.0,0.0,0.0,0.0,0.0,0.0,0.0,39.0
26.97,0.0,0.0,0.0,0.0,0.0,0.0,0.0,48.0
26.99,0.0,0.0,0.0,0.0,0.0,0.0,0.0,48.0
27.85,0.0,0.0,0.0,0.0,0.0,0.0,0.0,48.0
27.95,0.0,0.0,0.0,0.0,0.0,0.0,0.0,48.0
27.95,0.0,0.0,0.0,0.0,0.0,0.0,0.0,48.0
27.85,0.0,0.0,0.0,0.0,0.0,0.0,0.0,48.0
27.23,0.0,0.0,0.0,0.0,0.0,0.0,0.0,48.0
27.37,0.0,0.0,0.0,0.0,0.0,0.0,0.0,48.0
27.31,0.0,0.0,0.0,0.0,0.0,0.0,0.0,48.0
27.41,0.0,0.0,0.0,0.0,0.0,0.0,0.0,48.0
27.31,0.0,0.0,0.0,0.0,0.0,0.0,0.0,50.0
27.35,0.0,0.0,0.0,0.0,0.0,0.0,0.0,50.0
27.23,0.0,0.0,0.0,0.0,0.0,0.0,0.0,50.0
27.11,0.0,0.0,0.0,0.0,32.0,0.0,0.0,50.0
27.05,0.0,0.0,0.0,0.0,0.0,0.0,0.0,50.0
26.93,0.0,0.0,0.0,0.0,0.0,0.0,0.0,50.0
26.97,0.0,0.0,0.0,0.0,0.0,0.0,0.0,50.0
26.99,0.0,0.0,0.0,0.0,0.0,0.0,0.0,50.0
26.99,0.0,0.0,0.0,0.0,0.0,0.0,0.0,50.0
27.05,0.0,0.0,0.0,0.0,0.0,0.0,0.0,50.0
27.09,0.0,0.0,0.0,0.0,0.0,0.0,0.0,50.0
27.15,0.0,0.0,0.0,0.0,0.0,0.0,0.0,50.0
27.15,0.0,0.0,0.0,0.0,0.0,0.0,0.0,50.0
27.21,0.0,0.0,0.0,0.0,0.0,0.0,0.0,50.0
27.17,0.0,0.0,0.0,0.0,0.0,0.0,0.0,55.0
27.17,0.0,0.0,0.0,0.0,0.0,0.0,0.0,64.0
27.11,0.0,0.0,0.0,0.0,0.0,0.0,0.0,73.0
27.05,0.0,0.0,0.0,0.0,0.0,0.0,0.0,83.0
27.15,0.0,0.0,0.0,0.0,0.0,0.0,0.0,90.0
27.03,0.0,0.0,0.0,0.0,0.0,0.0,0.0,90.0
27.03,0.0,0.0,0.0,0.0,0.0,0.0,0.0,90.0
27.03,0.0,0.0,0.0,0.0,0.0,0.0,0.0,90.0
27.05,0.0,0.0,0.0,0.0,0.0,0.0,0.0,90.0
26.99,0.0,0.0,0.0,0.0,0.0,0.0,0.0,90.0
27.09,0.0,0.0,0.0,0.0,0.0,0.0,0.0,90.0
27.15,0.0,0.0,0.0,0.0,0.0,0.0,0.0,90.0
27.17,0.0,0.0,0.0,0.0,0.0,0.0,0.0,90.0
27.17,0.0,0.0,0.0,0.0,0.0,0.0,0.0,15.0
27.09,0.0,0.0,0.0,0.0,0.0,0.0,0.0,15.0
26.97,0.0,0.0,0.0,0.0,0.0,0.0,0.0,15.0
27.05,0.0,0.0,0.0,0.0,0.0,0.0,0.0,15.0
26.97,0.0,0.0,0.0,0.0,0.0,0.0,0.0,15.0
26.93,0.0,0.0,0.0,0.0,0.0,0.0,0.0,15.0
26.73,0.0,0.0,0.0,0.0,0.0,0.0,0.0,15.0
26.59,0.0,0.0,0.0,0.0,0.0,0.0,0.0,15.0
26.47,0.0,0.0,0.0,0.0,0.0,0.0,0.0,15.0
26.47,0.0,0.0,0.0,0.0,0.0,0.0,0.0,15.0
26.41,0.0,0.0,0.0,0.0,0.0,0.0,0.0,15.0
26.43,0.0,0.0,0.0,0.0,0.0,0.0,0.0,25.0
26.43,0.0,0.0,0.0,0.0,0.0,0.0,0.0,34.0
26.37,0.0,0.0,0.0,0.0,0.0,0.0,0.0,43.0
26.59,0.0,0.0,0.0,0.0,0.0,0.0,0.0,53.0
26.59,0.0,0.0,0.0,0.0,0.0,0.0,0.0,64.0
26.59,0.0,0.0,0.0,0.0,0.0,0.0,0.0,78.0
26.65,0.0,0.0,0.0,0.0,0.0,0.0,0.0,86.0
26.61,0.0,0.0,0.0,0.0,0.0,0.0,161.0,96.0
26.71,0.0,142.0,0.0,0.0,0.0,0.0,636.0,100.0
26.73,0.0,112.0,0.0,0.0,0.0,0.0,730.0,100.0
26.65,0.0,140.0,0.0,0.0,0.0,0.0,783.0,100.0
26.61,0.0,150.0,0.0,0.0,0.0,0.0,794.0,100.0
26.59,0.0,154.0,0.0,0.0,0.0,0.0,818.0,100.0
26.61,0.0,149.0,0.0,0.0,0.0,0.0,825.0,100.0
26.65,0.0,156.0,0.0,0.0,0.0,0.0,844.0,100.0
26.61,0.0,160.0,0.0,0.0,0.0,0.0,846.0,100.0
26.61,0.0,144.0,0.0,0.0,0.0,0.0,855.0,100.0
26.65,0.0,214.0,0.0,0.0,0.0,0.0,927.0,100.0
26.61,0.0,238.0,0.0,0.0,0.0,0.0,958.0,100.0
26.59,0.0,239.0,0.0,0.0,0.0,0.0,972.0,100.0
26.59,0.0,234.0,0.0,0.0,0.0,0.0,993.0,100.0
26.71,0.0,0.0,0.0,0.0,0.0,0.0,999.0,100.0
26.67,0.0,224.0,0.0,0.0,0.0,0.0,1009.0,100.0
26.65,0.0,220.0,0.0,0.0,0.0,0.0,1013.0,100.0
26.61,0.0,217.0,0.0,0.0,0.0,0.0,1021.0,100.0
26.61,0.0,218.0,0.0,0.0,0.0,0.0,1029.0,100.0
26.65,0.0,211.0,0.0,0.0,0.0,0.0,1039.0,100.0
26.71,0.0,212.0,0.0,0.0,0.0,0.0,1056.0,100.0
26.65,0.0,196.0,0.0,0.0,0.0,0.0,1039.0,100.0
26.61,0.0,178.0,0.0,0.0,0.0,0.0,1037.0,100.0
26.65,0.0,227.0,0.0,0.0,0.0,0.0,1043.0,100.0
26.61,0.0,217.0,0.0,0.0,0.0,0.0,1032.0,100.0
26.65,0.0,219.0,0.0,0.0,0.0,0.0,1039.0,100.0
26.65,0.0,213.0,0.0,0.0,0.0,0.0,1042.0,100.0
26.61,0.0,233.0,0.0,0.0,0.0,0.0,1042.0,100.0
26.59,0.0,220.0,0.0,0.0,0.0,0.0,1050.0,100.0
26.61,0.0,212.0,0.0,0.0,0.0,0.0,1065.0,100.0
26.65,0.0,211.0,0.0,0.0,0.0,0.0,1059.0,100.0
26.59,0.0,210.0,0.0,0.0,0.0,0.0,1072.0,100.0
26.67,0.0,0.0,0.0,0.0,0.0,0.0,1080.0,100.0
26.61,0.0,213.0,0.0,0.0,0.0,0.0,1081.0,100.0
26.67,0.0,122.0,0.0,0.0,0.0,0.0,1072.0,100.0
26.65,0.0,213.0,0.0,0.0,0.0,0.0,1076.0,100.0
26.61,0.0,211.0,0.0,0.0,0.0,0.0,1082.0,100.0
26.65,0.0,224.0,0.0,0.0,0.0,0.0,1078.0,100.0
26.77,0.0,214.0,0.0,0.0,0.0,0.0,1078.0,100.0
26.59,0.0,270.0,0.0,0.0,0.0,0.0,1072.0,100.0
26.65,0.0,208.0,0.0,0.0,0.0,0.0,1076.0,100.0
26.65,0.0,220.0,0.0,0.0,0.0,0.0,1076.0,100.0
26.61,0.0,218.0,0.0,0.0,0.0,0.0,1081.0,100.0
26.65,0.0,215.0,0.0,0.0,0.0,0.0,1070.0,100.0
26.61,0.0,217.0,0.0,0.0,0.0,0.0,1073.0,100.0
26.59,0.0,192.0,0.0,0.0,0.0,0.0,1063.0,100.0
26.65,0.0,222.0,0.0,0.0,0.0,0.0,1072.0,100.0
26.61,0.0,222.0,0.0,0.0,0.0,0.0,1070.0,100.0
26.61,0.0,131.0,0.0,0.0,0.0,0.0,1072.0,100.0
26.55,0.0,158.0,0.0,0.0,0.0,0.0,1076.0,100.0
26.61,0.0,0.0,0.0,0.0,0.0,0.0,1068.0,100.0
26.61,0.0,223.0,0.0,0.0,0.0,0.0,1067.0,100.0
26.61,0.0,218.0,0.0,0.0,0.0,0.0,1079.0,100.0
26.61,0.0,208.0,0.0,0.0,0.0,0.0,1074.0,100.0
26.61,0.0,155.0,0.0,0.0,0.0,0.0,1068.0,100.0
26.65,0.0,0.0,0.0,0.0,0.0,0.0,1074.0,100.0
26.59,0.0,225.0,0.0,0.0,0.0,0.0,1068.0,100.0
26.65,0.0,218.0,0.0,0.0,0.0,0.0,1072.0,100.0
26.73,0.0,160.0,0.0,0.0,0.0,0.0,1078.0,100.0
26.65,0.0,223.0,0.0,0.0,0.0,0.0,1069.0,100.0
26.61,0.0,207.0,0.0,0.0,0.0,0.0,1075.0,100.0
26.55,0.0,223.0,0.0,0.0,0.0,0.0,1070.0,100.0
26.59,0.0,221.0,0.0,0.0,0.0,0.0,1075.0,100.0
26.59,0.0,226.0,0.0,0.0,0.0,0.0,1073.0,100.0
26.61,0.0,227.0,0.0,0.0,0.0,0.0,1073.0,100.0
26.65,0.0,219.0,0.0,0.0,0.0,0.0,1072.0,100.0
26.59,0.0,224.0,0.0,0.0,0.0,0.0,1074.0,100.0
26.61,0.0,239.0,0.0,0.0,0.0,0.0,1076.0,100.0
26.61,0.0,227.0,0.0,0.0,0.0,0.0,1071.0,100.0
26.73,0.0,239.0,0.0,0.0,0.0,0.0,1073.0,100.0
26.73,0.0,229.0,0.0,0.0,0.0,0.0,1058.0,100.0
26.73,0.0,224.0,0.0,0.0,0.0,0.0,1088.0,100.0
26.61,0.0,219.0,0.0,0.0,0.0,0.0,1088.0,100.0
26.61,0.0,223.0,0.0,0.0,0.0,0.0,1093.0,100.0
26.67,0.0,192.0,0.0,0.0,0.0,0.0,1097.0,100.0
26.61,0.0,242.0,0.0,0.0,0.0,0.0,1105.0,100.0
26.61,0.0,208.0,0.0,0.0,0.0,0.0,1095.0,100.0
26.61,0.0,157.0,0.0,0.0,0.0,0.0,1100.0,100.0
26.65,0.0,222.0,0.0,0.0,0.0,0.0,1108.0,100.0
26.61,0.0,222.0,0.0,0.0,0.0,0.0,1096.0,100.0
26.73,0.0,224.0,0.0,0.0,0.0,0.0,1105.0,100.0
26.71,0.0,192.0,0.0,0.0,0.0,0.0,1099.0,100.0
26.73,0.0,222.0,0.0,0.0,0.0,0.0,1111.0,100.0
26.91,0.0,221.0,0.0,0.0,0.0,0.0,1109.0,100.0
26.87,0.0,224.0,0.0,0.0,0.0,0.0,1106.0,15.0
26.77,0.0,0.0,0.0,0.0,0.0,0.0,0.0,15.0
27.15,0.0,0.0,0.0,0.0,0.0,0.0,0.0,15.0
26.99,0.0,0.0,0.0,0.0,0.0,0.0,0.0,15.0
27.11,0.0,0.0,0.0,0.0,0.0,0.0,0.0,15.0
27.05,0.0,0.0,0.0,0.0,0.0,0.0,0.0,15.0
27.09,0.0,0.0,0.0,0.0,0.0,0.0,0.0,15.0
27.21,0.0,0.0,0.0,0.0,0.0,0.0,0.0,15.0
27.49,0.0,0.0,0.0,0.0,0.0,0.0,0.0,15.0
27.55,0.0,0.0,0.0,0.0,0.0,0.0,0.0,15.0
27.49,0.0,0.0,0.0,0.0,0.0,0.0,0.0,15.0
26.93,0.0,0.0,0.0,0.0,0.0,0.0,0.0,15.0
26.99,0.0,0.0,0.0,0.0,0.0,0.0,0.0,15.0
26.97,0.0,0.0,0.0,0.0,0.0,0.0,0.0,20.0
26.97,0.0,0.0,0.0,0.0,0.0,0.0,0.0,20.0
26.97,0.0,0.0,0.0,0.0,0.0,0.0,0.0,20.0
26.99,0.0,0.0,0.0,0.0,0.0,0.0,0.0,20.0
27.11,0.0,0.0,0.0,0.0,0.0,0.0,0.0,20.0
27.21,0.0,0.0,0.0,0.0,0.0,0.0,0.0,20.0
27.17,0.0,0.0,0.0,0.0,0.0,0.0,0.0,20.0
27.17,0.0,0.0,0.0,0.0,0.0,0.0,0.0,20.0
27.15,0.0,0.0,0.0,0.0,0.0,0.0,0.0,20.0
27.15,0.0,0.0,0.0,0.0,0.0,0.0,0.0,20.0
27.05,0.0,0.0,0.0,0.0,0.0,0.0,0.0,20.0
27.09,0.0,0.0,0.0,0.0,0.0,0.0,0.0,20.0
27.09,0.0,0.0,0.0,0.0,0.0,0.0,0.0,20.0
27.15,0.0,0.0,0.0,0.0,0.0,0.0,0.0,20.0
27.17,0.0,0.0,0.0,0.0,0.0,0.0,0.0,20.0
27.15,0.0,0.0,0.0,0.0,0.0,0.0,0.0,20.0
27.17,0.0,0.0,0.0,0.0,0.0,0.0,0.0,20.0
27.21,0.0,0.0,0.0,0.0,0.0,0.0,0.0,20.0
27.21,0.0,0.0,0.0,0.0,0.0,0.0,0.0,20.0
27.21,0.0,0.0,0.0,0.0,0.0,0.0,0.0,20.0
27.21,0.0,0.0,0.0,0.0,0.0,0.0,0.0,20.0
27.17,0.0,0.0,0.0,0.0,0.0,0.0,0.0,20.0
27.17,0.0,0.0,0.0,0.0,0.0,0.0,0.0,20.0
27.25,0.0,0.0,0.0,0.0,0.0,0.0,0.0,20.0
27.23,0.0,0.0,0.0,0.0,0.0,0.0,0.0,20.0
27.21,0.0,0.0,0.0,0.0,0.0,0.0,0.0,20.0
27.21,0.0,0.0,0.0,0.0,0.0,0.0,0.0,20.0
27.21,0.0,0.0,0.0,0.0,0.0,0.0,0.0,20.0
27.25,0.0,0.0,0.0,0.0,0.0,0.0,0.0,15.0
27.03,0.0,0.0,0.0,0.0,0.0,0.0,0.0,15.0
26.97,0.0,0.0,0.0,0.0,0.0,0.0,0.0,15.0
26.99,0.0,0.0,0.0,0.0,0.0,0.0,0.0,15.0
27.37,0.0,0.0,0.0,0.0,0.0,0.0,0.0,15.0
28.85,0.0,0.0,0.0,0.0,0.0,0.0,0.0,15.0
35.63,0.0,0.0,0.0,0.0,0.0,0.0,0.0,15.0
37.29,0.0,0.0,0.0,0.0,0.0,0.0,0.0,15.0
37.99,0.0,0.0,0.0,0.0,0.0,0.0,0.0,15.0
37.63,0.0,0.0,0.0,0.0,0.0,0.0,0.0,15.0
38.05,0.0,0.0,0.0,0.0,0.0,0.0,0.0,15.0
38.19,0.0,0.0,0.0,0.0,0.0,0.0,0.0,16.0
38.19,0.0,0.0,0.0,0.0,0.0,0.0,0.0,26.0
37.99,0.0,0.0,0.0,0.0,0.0,0.0,0.0,37.0
37.33,0.0,0.0,0.0,0.0,0.0,0.0,0.0,46.0
36.95,0.0,0.0,0.0,0.0,0.0,0.0,0.0,57.0
36.93,0.0,0.0,0.0,0.0,0.0,0.0,162.0,67.0
36.77,0.0,0.0,0.0,0.0,491.0,0.0,2031.0,76.0
36.63,0.0,0.0,0.0,0.0,647.0,0.0,2448.0,85.0
36.69,0.0,0.0,0.0,0.0,655.0,0.0,2474.0,94.0
36.57,0.0,0.0,0.0,0.0,662.0,0.0,2474.0,100.0
36.61,0.0,0.0,0.0,0.0,676.0,0.0,2474.0,100.0
36.63,0.0,7.0,0.0,0.0,617.0,0.0,2486.0,100.0
36.63,0.0,0.0,0.0,0.0,471.0,0.0,2488.0,100.0
36.53,0.0,6.0,0.0,0.0,511.0,0.0,2532.0,100.0
36.61,0.0,1.0,0.0,0.0,526.0,0.0,2534.0,100.0
36.57,0.0,2.0,0.0,0.0,525.0,0.0,2537.0,100.0
36.61,0.0,4.0,0.0,0.0,529.0,0.0,2549.0,100.0
36.61,0.0,16.0,0.0,0.0,421.0,0.0,2417.0,100.0
36.61,0.0,0.0,0.0,0.0,575.0,0.0,2433.0,100.0
36.65,0.0,0.0,0.0,0.0,432.0,0.0,2504.0,100.0
36.65,0.0,0.0,0.0,0.0,407.0,0.0,2543.0,100.0
36.69,0.0,0.0,0.0,0.0,390.0,0.0,2602.0,100.0
36.61,0.0,0.0,0.0,0.0,375.0,0.0,2678.0,100.0
36.65,0.0,0.0,0.0,0.0,375.0,0.0,2698.0,100.0
36.71,0.0,0.0,0.0,0.0,385.0,0.0,2717.0,100.0
36.69,0.0,0.0,0.0,0.0,320.0,0.0,2677.0,100.0
36.71,0.0,0.0,0.0,0.0,352.0,0.0,2682.0,100.0
36.79,0.0,0.0,0.0,0.0,368.0,0.0,2678.0,100.0
36.73,0.0,0.0,0.0,0.0,374.0,0.0,2678.0,100.0
36.73,0.0,0.0,0.0,0.0,377.0,0.0,2679.0,100.0
36.77,0.0,0.0,0.0,0.0,382.0,0.0,2683.0,100.0
36.93,0.0,0.0,0.0,0.0,362.0,0.0,2686.0,100.0
36.93,0.0,0.0,0.0,0.0,389.0,0.0,2690.0,100.0
36.89,0.0,0.0,0.0,0.0,385.0,0.0,2691.0,100.0
36.95,0.0,0.0,0.0,0.0,391.0,0.0,2696.0,100.0
36.97,0.0,0.0,0.0,0.0,388.0,0.0,2694.0,100.0
36.95,0.0,0.0,0.0,0.0,386.0,0.0,2693.0,100.0
37.01,0.0,0.0,0.0,0.0,390.0,0.0,2701.0,100.0
36.95,0.0,0.0,0.0,0.0,389.0,0.0,2698.0,100.0
36.95,0.0,0.0,0.0,0.0,396.0,0.0,2699.0,100.0
37.03,0.0,0.0,0.0,0.0,393.0,0.0,2699.0,100.0
37.09,0.0,0.0,0.0,0.0,403.0,0.0,2704.0,100.0
37.01,0.0,0.0,0.0,0.0,392.0,0.0,2718.0,100.0
36.97,0.0,0.0,0.0,0.0,400.0,0.0,2710.0,100.0
37.01,0.0,0.0,0.0,0.0,451.0,0.0,2716.0,100.0
37.03,0.0,0.0,0.0,0.0,402.0,0.0,2719.0,100.0
37.01,0.0,0.0,0.0,0.0,400.0,0.0,2713.0,100.0
37.01,0.0,0.0,0.0,0.0,408.0,0.0,2725.0,100.0
36.95,0.0,0.0,0.0,0.0,405.0,0.0,2710.0,100.0
37.01,0.0,0.0,0.0,0.0,401.0,0.0,2717.0,100.0
36.97,0.0,0.0,0.0,0.0,400.0,0.0,2718.0,100.0
37.05,0.0,0.0,0.0,0.0,415.0,0.0,2715.0,100.0
37.03,0.0,0.0,0.0,0.0,405.0,0.0,2723.0,100.0
37.03,0.0,0.0,0.0,0.0,405.0,0.0,2730.0,100.0
37.03,0.0,0.0,0.0,0.0,403.0,0.0,2715.0,100.0
37.05,0.0,0.0,0.0,0.0,404.0,0.0,2737.0,100.0
37.01,0.0,0.0,0.0,0.0,411.0,0.0,2734.0,100.0
37.01,0.0,0.0,0.0,0.0,407.0,0.0,2726.0,100.0
37.01,0.0,0.0,0.0,0.0,407.0,0.0,2733.0,100.0
37.03,0.0,0.0,0.0,0.0,406.0,0.0,2723.0,100.0
37.05,0.0,0.0,0.0,0.0,410.0,0.0,2734.0,100.0
37.05,0.0,0.0,0.0,0.0,405.0,0.0,2727.0,100.0
37.09,0.0,0.0,0.0,0.0,405.0,0.0,2723.0,100.0
37.09,0.0,0.0,0.0,0.0,405.0,0.0,2722.0,100.0
37.09,0.0,0.0,0.0,0.0,413.0,0.0,2725.0,100.0
37.03,0.0,0.0,0.0,0.0,470.0,0.0,2723.0,100.0
37.03,0.0,0.0,0.0,0.0,406.0,0.0,2737.0,100.0
37.05,0.0,0.0,0.0,0.0,410.0,0.0,2727.0,100.0
37.03,0.0,0.0,0.0,0.0,367.0,0.0,2731.0,100.0
37.09,0.0,0.0,0.0,0.0,421.0,0.0,2726.0,100.0
37.03,0.0,0.0,0.0,0.0,416.0,0.0,2729.0,100.0
37.01,0.0,0.0,0.0,0.0,412.0,0.0,2724.0,100.0
37.05,0.0,0.0,0.0,0.0,494.0,0.0,2693.0,100.0
37.01,0.0,0.0,0.0,0.0,400.0,0.0,2659.0,100.0
37.05,0.0,0.0,0.0,0.0,432.0,0.0,2607.0,100.0
37.11,0.0,0.0,0.0,0.0,452.0,0.0,2499.0,100.0
37.19,0.0,0.0,0.0,0.0,495.0,0.0,2421.0,100.0
37.19,0.0,0.0,0.0,0.0,496.0,0.0,2365.0,100.0
37.09,0.0,0.0,0.0,0.0,565.0,0.0,2249.0,100.0
37.11,0.0,0.0,0.0,0.0,626.0,0.0,2284.0,100.0
37.17,0.0,0.0,0.0,0.0,625.0,0.0,2285.0,100.0
37.17,0.0,0.0,0.0,0.0,636.0,0.0,2324.0,100.0
37.09,0.0,0.0,0.0,0.0,646.0,0.0,2332.0,100.0
37.09,0.0,0.0,0.0,0.0,611.0,0.0,2376.0,100.0
37.11,0.0,0.0,0.0,0.0,601.0,0.0,2384.0,100.0
37.09,0.0,0.0,0.0,0.0,570.0,0.0,2455.0,100.0
37.11,0.0,0.0,0.0,0.0,589.0,0.0,2466.0,100.0
37.09,0.0,0.0,0.0,0.0,576.0,0.0,2471.0,100.0
37.05,0.0,0.0,0.0,0.0,562.0,0.0,2534.0,100.0
37.11,0.0,0.0,0.0,0.0,564.0,0.0,2537.0,100.0
37.09,0.0,0.0,0.0,0.0,561.0,0.0,2544.0,100.0
37.05,0.0,64.0,0.0,0.0,559.0,0.0,2543.0,100.0
37.09,0.0,0.0,0.0,0.0,0.0,0.0,2548.0,15.0
37.29,0.0,0.0,0.0,0.0,0.0,0.0,26.0,15.0
27.37,0.0,0.0,0.0,0.0,0.0,0.0,0.0,15.0
27.31,0.0,0.0,0.0,0.0,0.0,0.0,0.0,15.0
27.35,0.0,0.0,0.0,0.0,0.0,0.0,0.0,15.0
27.85,0.0,0.0,0.0,0.0,0.0,0.0,0.0,15.0
28.25,0.0,0.0,0.0,0.0,0.0,0.0,0.0,15.0
28.27,0.0,0.0,0.0,0.0,0.0,0.0,0.0,15.0
27.35,0.0,0.0,0.0,0.0,0.0,0.0,0.0,15.0
27.25,0.0,0.0,0.0,0.0,0.0,0.0,0.0,15.0
27.23,0.0,0.0,0.0,0.0,0.0,0.0,0.0,15.0
27.21,0.0,0.0,0.0,0.0,0.0,0.0,0.0,15.0
27.29,0.0,0.0,0.0,0.0,0.0,0.0,0.0,15.0
27.21,0.0,0.0,0.0,0.0,0.0,0.0,0.0,15.0
27.25,0.0,0.0,0.0,0.0,16.0,0.0,0.0,15.0
27.25,0.0,0.0,0.0,0.0,0.0,0.0,0.0,15.0
27.29,0.0,0.0,0.0,0.0,0.0,0.0,0.0,15.0
27.29,0.0,0.0,0.0,0.0,0.0,0.0,0.0,15.0
27.35,0.0,0.0,0.0,0.0,0.0,0.0,0.0,21.0
27.31,0.0,0.0,0.0,0.0,0.0,0.0,0.0,30.0
27.35,0.0,0.0,0.0,0.0,0.0,0.0,0.0,34.0
27.41,0.0,0.0,0.0,0.0,0.0,0.0,0.0,34.0
27.35,0.0,0.0,0.0,0.0,0.0,0.0,0.0,34.0
27.35,0.0,0.0,0.0,0.0,0.0,0.0,0.0,34.0
27.35,0.0,0.0,0.0,0.0,0.0,0.0,0.0,34.0
27.31,0.0,0.0,0.0,0.0,0.0,0.0,0.0,34.0
27.41,0.0,0.0,0.0,0.0,0.0,0.0,0.0,34.0
27.35,0.0,0.0,0.0,0.0,0.0,0.0,0.0,34.0
27.31,0.0,0.0,0.0,0.0,0.0,0.0,0.0,34.0
27.35,0.0,0.0,0.0,0.0,0.0,0.0,0.0,34.0
27.31,0.0,0.0,0.0,0.0,0.0,0.0,0.0,34.0
27.29,0.0,0.0,0.0,0.0,0.0,0.0,0.0,39.0
27.35,0.0,0.0,0.0,0.0,0.0,0.0,0.0,47.0
27.31,0.0,0.0,0.0,0.0,0.0,0.0,0.0,47.0
27.31,0.0,0.0,0.0,0.0,0.0,0.0,0.0,47.0
27.31,0.0,0.0,0.0,0.0,0.0,16.0,0.0,47.0
27.35,0.0,0.0,0.0,0.0,0.0,0.0,0.0,47.0
27.35,0.0,0.0,0.0,0.0,0.0,0.0,0.0,47.0
27.31,0.0,0.0,0.0,0.0,0.0,0.0,0.0,47.0
27.31,0.0,0.0,0.0,0.0,0.0,0.0,0.0,47.0
27.31,0.0,0.0,0.0,0.0,0.0,0.0,0.0,47.0
27.29,0.0,0.0,0.0,0.0,0.0,0.0,0.0,47.0
27.31,0.0,0.0,0.0,0.0,0.0,0.0,0.0,15.0
27.21,0.0,0.0,0.0,0.0,0.0,0.0,0.0,15.0
27.21,0.0,0.0,0.0,0.0,0.0,0.0,0.0,15.0
27.35,0.0,0.0,0.0,0.0,0.0,0.0,0.0,15.0
27.31,0.0,0.0,0.0,0.0,0.0,0.0,0.0,15.0
27.35,0.0,0.0,0.0,0.0,0.0,0.0,0.0,15.0
27.31,0.0,0.0,0.0,0.0,0.0,0.0,0.0,24.0
27.31,0.0,0.0,0.0,0.0,0.0,0.0,0.0,24.0
27.43,0.0,0.0,0.0,0.0,0.0,0.0,0.0,24.0
27.37,0.0,0.0,0.0,0.0,0.0,0.0,0.0,24.0
27.43,0.0,0.0,0.0,0.0,0.0,0.0,0.0,24.0
27.41,0.0,0.0,0.0,0.0,0.0,0.0,0.0,24.0
27.63,0.0,0.0,0.0,0.0,0.0,0.0,0.0,24.0
27.69,0.0,0.0,0.0,0.0,0.0,0.0,0.0,29.0
27.91,0.0,0.0,0.0,0.0,0.0,0.0,0.0,38.0
27.69,0.0,0.0,0.0,0.0,0.0,0.0,0.0,41.0
27.73,0.0,0.0,0.0,0.0,0.0,0.0,0.0,41.0
27.79,0.0,0.0,0.0,0.0,0.0,0.0,0.0,41.0
27.73,0.0,0.0,0.0,0.0,0.0,0.0,0.0,41.0
27.67,0.0,0.0,0.0,0.0,0.0,0.0,0.0,41.0
27.63,0.0,0.0,0.0,0.0,0.0,0.0,0.0,41.0
27.67,0.0,0.0,0.0,0.0,0.0,0.0,0.0,41.0
27.63,0.0,0.0,0.0,0.0,0.0,0.0,0.0,41.0
27.63,0.0,0.0,0.0,0.0,0.0,0.0,0.0,41.0
27.61,0.0,0.0,0.0,0.0,0.0,0.0,0.0,41.0
27.59,0.0,0.0,0.0,0.0,0.0,0.0,0.0,41.0
27.59,0.0,0.0,0.0,0.0,0.0,0.0,0.0,41.0
27.59,0.0,0.0,0.0,0.0,0.0,0.0,0.0,41.0
27.61,0.0,0.0,0.0,0.0,0.0,0.0,0.0,41.0
27.59,0.0,0.0,0.0,0.0,0.0,0.0,0.0,41.0
27.55,0.0,0.0,0.0,0.0,0.0,0.0,0.0,41.0
27.53,0.0,0.0,0.0,0.0,0.0,0.0,0.0,43.0
27.53,0.0,0.0,0.0,0.0,0.0,0.0,0.0,52.0
27.61,0.0,0.0,0.0,0.0,0.0,0.0,0.0,64.0
27.55,0.0,0.0,0.0,0.0,0.0,0.0,0.0,74.0
27.43,0.0,0.0,0.0,0.0,0.0,0.0,0.0,82.0
27.35,0.0,0.0,0.0,0.0,0.0,0.0,12.0,92.0
27.35,0.0,0.0,0.0,0.0,0.0,0.0,0.0,100.0
27.29,0.0,0.0,0.0,0.0,0.0,0.0,0.0,100.0
27.31,0.0,0.0,0.0,0.0,0.0,0.0,0.0,100.0
27.31,0.0,0.0,0.0,0.0,0.0,0.0,0.0,100.0
27.37,0.0,0.0,0.0,0.0,0.0,0.0,0.0,100.0
27.31,0.0,0.0,0.0,0.0,0.0,0.0,0.0,100.0
27.29,0.0,0.0,0.0,0.0,0.0,0.0,0.0,100.0
27.35,0.0,0.0,0.0,0.0,0.0,0.0,0.0,100.0
27.35,0.0,0.0,0.0,0.0,0.0,0.0,0.0,100.0
27.29,0.0,0.0,0.0,0.0,0.0,0.0,0.0,100.0
27.29,0.0,0.0,0.0,0.0,0.0,0.0,0.0,100.0
27.29,0.0,0.0,0.0,0.0,0.0,0.0,0.0,100.0
27.29,0.0,0.0,0.0,0.0,0.0,0.0,0.0,100.0
27.31,0.0,0.0,0.0,0.0,0.0,0.0,0.0,100.0
27.29,0.0,0.0,0.0,0.0,0.0,0.0,0.0,100.0
27.25,0.0,0.0,0.0,0.0,0.0,0.0,0.0,100.0
27.25,0.0,0.0,0.0,0.0,0.0,0.0,0.0,100.0
27.15,0.0,0.0,0.0,0.0,0.0,0.0,0.0,100.0
27.17,0.0,0.0,0.0,0.0,0.0,0.0,0.0,100.0
27.09,0.0,0.0,0.0,0.0,0.0,0.0,0.0,100.0
27.17,0.0,0.0,0.0,0.0,0.0,0.0,0.0,100.0
27.09,0.0,0.0,0.0,0.0,0.0,0.0,0.0,100.0
27.09,0.0,0.0,0.0,0.0,0.0,0.0,0.0,100.0
27.09,0.0,0.0,0.0,0.0,0.0,0.0,0.0,100.0
27.17,20.0,0.0,0.0,0.0,0.0,0.0,0.0,100.0
27.23,0.0,0.0,0.0,0.0,0.0,0.0,0.0,100.0
27.25,0.0,0.0,0.0,0.0,0.0,0.0,0.0,100.0
27.21,0.0,0.0,0.0,0.0,0.0,0.0,0.0,100.0
27.21,0.0,0.0,0.0,0.0,0.0,0.0,0.0,100.0
27.21,0.0,0.0,0.0,0.0,0.0,0.0,0.0,100.0
27.25,0.0,0.0,0.0,0.0,0.0,0.0,0.0,100.0
27.23,0.0,0.0,0.0,0.0,0.0,0.0,0.0,100.0
27.17,0.0,0.0,0.0,0.0,0.0,0.0,0.0,100.0
27.21,0.0,0.0,0.0,0.0,0.0,0.0,0.0,100.0
27.17,0.0,0.0,0.0,0.0,0.0,0.0,0.0,100.0
27.17,0.0,0.0,0.0,0.0,0.0,0.0,0.0,100.0
27.21,0.0,0.0,0.0,0.0,0.0,0.0,0.0,100.0
27.17,0.0,0.0,0.0,0.0,0.0,0.0,0.0,100.0
27.11,0.0,0.0,0.0,0.0,0.0,0.0,0.0,100.0
27.17,0.0,0.0,0.0,0.0,0.0,0.0,0.0,100.0
27.09,0.0,0.0,0.0,0.0,0.0,0.0,0.0,100.0
27.09,0.0,0.0,0.0,0.0,0.0,0.0,0.0,100.0
27.15,0.0,0.0,0.0,0.0,0.0,0.0,0.0,100.0
27.23,0.0,0.0,0.0,0.0,0.0,0.0,0.0,100.0
27.25,0.0,0.0,0.0,0.0,0.0,0.0,0.0,100.0
27.17,0.0,0.0,0.0,0.0,0.0,0.0,0.0,100.0
27.17,0.0,0.0,0.0,0.0,0.0,0.0,0.0,100.0
27.21,0.0,0.0,0.0,0.0,0.0,0.0,0.0,100.0
27.23,0.0,0.0,0.0,0.0,0.0,0.0,0.0,100.0
27.23,0.0,0.0,0.0,0.0,0.0,0.0,0.0,100.0
27.23,0.0,0.0,0.0,0.0,0.0,0.0,0.0,100.0
27.25,0.0,0.0,0.0,0.0,0.0,0.0,0.0,100.0
27.25,0.0,0.0,0.0,0.0,0.0,0.0,0.0,100.0
27.23,0.0,0.0,0.0,0.0,0.0,0.0,0.0,100.0
27.17,0.0,0.0,0.0,0.0,0.0,0.0,0.0,100.0
27.21,0.0,0.0,0.0,0.0,0.0,0.0,0.0,100.0
27.15,0.0,0.0,0.0,0.0,0.0,0.0,0.0,100.0
27.09,0.0,0.0,0.0,0.0,0.0,0.0,0.0,100.0
27.21,0.0,0.0,0.0,0.0,0.0,0.0,0.0,100.0
27.21,0.0,0.0,0.0,0.0,0.0,0.0,0.0,100.0
27.23,0.0,0.0,0.0,0.0,0.0,0.0,0.0,100.0
27.23,0.0,0.0,0.0,0.0,0.0,0.0,0.0,100.0
27.17,0.0,0.0,0.0,0.0,0.0,0.0,0.0,100.0
27.23,0.0,0.0,0.0,0.0,0.0,0.0,0.0,100.0
27.25,0.0,0.0,0.0,0.0,0.0,0.0,0.0,100.0
27.23,0.0,0.0,0.0,0.0,0.0,0.0,0.0,15.0
27.23,0.0,0.0,0.0,0.0,0.0,0.0,0.0,17.0
27.11,0.0,0.0,0.0,0.0,0.0,0.0,0.0,25.0
27.21,0.0,0.0,0.0,0.0,0.0,0.0,0.0,26.0
27.15,0.0,0.0,0.0,0.0,0.0,0.0,0.0,26.0
27.11,0.0,0.0,0.0,0.0,0.0,0.0,0.0,26.0
27.37,0.0,0.0,0.0,0.0,0.0,0.0,0.0,26.0
28.19,0.0,0.0,0.0,0.0,0.0,0.0,0.0,26.0
28.07,0.0,0.0,0.0,0.0,0.0,0.0,0.0,26.0
27.35,0.0,0.0,0.0,0.0,0.0,0.0,0.0,26.0
27.29,0.0,0.0,0.0,0.0,0.0,0.0,0.0,26.0
27.37,0.0,0.0,0.0,0.0,0.0,0.0,0.0,26.0
27.35,0.0,0.0,0.0,0.0,0.0,0.0,0.0,26.0
27.43,0.0,0.0,0.0,0.0,0.0,0.0,0.0,30.0
27.37,0.0,0.0,0.0,0.0,0.0,0.0,0.0,39.0
27.41,0.0,0.0,0.0,0.0,0.0,0.0,0.0,47.0
27.41,0.0,0.0,0.0,0.0,0.0,0.0,0.0,47.0
27.47,0.0,0.0,0.0,0.0,0.0,0.0,0.0,47.0
27.41,0.0,0.0,0.0,0.0,0.0,0.0,0.0,47.0
27.41,0.0,0.0,0.0,0.0,0.0,0.0,0.0,47.0
27.47,0.0,0.0,0.0,0.0,0.0,0.0,0.0,47.0
27.35,0.0,0.0,0.0,0.0,0.0,0.0,0.0,47.0
27.31,0.0,0.0,0.0,0.0,0.0,0.0,0.0,47.0
27.31,0.0,0.0,0.0,0.0,0.0,0.0,0.0,47.0
27.29,0.0,0.0,0.0,0.0,0.0,0.0,0.0,47.0
27.29,0.0,0.0,0.0,0.0,0.0,0.0,0.0,47.0
27.29,0.0,0.0,0.0,0.0,0.0,0.0,0.0,47.0
27.43,0.0,0.0,0.0,0.0,0.0,0.0,0.0,47.0
27.47,0.0,0.0,0.0,0.0,0.0,0.0,0.0,56.0
27.53,0.0,0.0,0.0,0.0,0.0,0.0,0.0,60.0
27.55,0.0,0.0,0.0,0.0,0.0,0.0,0.0,60.0
27.61,0.0,0.0,0.0,0.0,0.0,0.0,0.0,60.0
27.67,0.0,0.0,0.0,0.0,0.0,0.0,0.0,60.0
27.67,0.0,0.0,0.0,0.0,0.0,0.0,0.0,60.0
27.67,0.0,0.0,0.0,0.0,0.0,0.0,0.0,60.0
27.61,0.0,0.0,0.0,0.0,0.0,0.0,0.0,60.0
27.69,0.0,0.0,0.0,0.0,0.0,0.0,0.0,60.0
27.53,0.0,0.0,0.0,0.0,0.0,0.0,0.0,60.0
27.43,0.0,0.0,0.0,0.0,0.0,0.0,0.0,60.0
27.49,0.0,0.0,0.0,0.0,0.0,0.0,0.0,60.0
27.37,0.0,0.0,0.0,0.0,0.0,0.0,0.0,60.0
27.55,0.0,0.0,0.0,0.0,0.0,0.0,0.0,15.0
27.31,0.0,0.0,0.0,0.0,0.0,0.0,0.0,15.0
27.15,0.0,0.0,0.0,0.0,0.0,0.0,0.0,15.0
27.09,0.0,0.0,0.0,0.0,0.0,0.0,0.0,15.0
27.21,0.0,0.0,0.0,0.0,0.0,0.0,0.0,15.0
27.29,0.0,0.0,0.0,0.0,0.0,0.0,0.0,15.0
27.17,0.0,0.0,0.0,0.0,0.0,0.0,0.0,15.0
27.15,0.0,0.0,0.0,0.0,0.0,0.0,0.0,15.0
27.29,0.0,0.0,0.0,0.0,0.0,0.0,0.0,15.0
27.29,0.0,0.0,0.0,0.0,0.0,0.0,0.0,15.0
27.37,0.0,0.0,0.0,0.0,0.0,0.0,0.0,15.0
27.23,0.0,0.0,0.0,0.0,0.0,0.0,0.0,15.0
27.17,0.0,0.0,0.0,0.0,0.0,0.0,0.0,15.0
27.35,0.0,0.0,0.0,0.0,0.0,0.0,0.0,15.0
27.11,0.0,0.0,0.0,0.0,0.0,0.0,0.0,15.0
27.11,0.0,0.0,0.0,0.0,0.0,0.0,2.0,15.0
27.11,0.0,0.0,0.0,0.0,0.0,0.0,0.0,15.0
27.15,0.0,0.0,0.0,0.0,0.0,0.0,0.0,15.0
27.11,0.0,0.0,0.0,0.0,0.0,0.0,0.0,15.0
27.11,0.0,0.0,0.0,0.0,0.0,0.0,0.0,15.0
27.11,0.0,0.0,0.0,0.0,0.0,0.0,0.0,15.0
27.17,0.0,0.0,0.0,0.0,0.0,0.0,0.0,19.0
27.11,0.0,0.0,0.0,0.0,0.0,0.0,0.0,29.0
27.21,0.0,0.0,0.0,0.0,0.0,0.0,0.0,39.0
27.21,0.0,0.0,0.0,0.0,0.0,0.0,0.0,48.0
27.23,0.0,0.0,0.0,0.0,0.0,0.0,0.0,58.0
27.15,0.0,0.0,0.0,0.0,0.0,0.0,0.0,67.0
27.21,0.0,0.0,0.0,0.0,0.0,0.0,50.0,76.0
27.21,0.0,0.0,0.0,0.0,624.0,0.0,1718.0,86.0
27.23,0.0,0.0,0.0,0.0,0.0,0.0,1619.0,95.0
27.31,0.0,0.0,0.0,0.0,0.0,0.0,1725.0,100.0
27.25,0.0,0.0,0.0,0.0,192.0,0.0,2036.0,100.0
27.23,0.0,0.0,0.0,0.0,157.0,0.0,2090.0,100.0
27.21,0.0,0.0,0.0,0.0,42.0,0.0,2022.0,100.0
27.17,0.0,0.0,0.0,0.0,0.0,0.0,2050.0,100.0
27.15,0.0,0.0,0.0,0.0,0.0,0.0,2132.0,100.0
27.23,0.0,0.0,0.0,0.0,0.0,0.0,2122.0,100.0
27.23,0.0,0.0,0.0,0.0,0.0,0.0,2268.0,100.0
27.21,0.0,0.0,0.0,0.0,0.0,0.0,2195.0,100.0
27.21,0.0,0.0,0.0,0.0,0.0,0.0,2201.0,100.0
27.17,0.0,0.0,0.0,0.0,0.0,0.0,2211.0,100.0
27.21,0.0,0.0,0.0,0.0,0.0,0.0,2211.0,100.0
27.17,0.0,0.0,0.0,0.0,0.0,0.0,2221.0,100.0
27.11,0.0,0.0,0.0,0.0,0.0,0.0,2232.0,100.0
27.11,0.0,0.0,0.0,0.0,0.0,0.0,2232.0,100.0
27.15,0.0,0.0,0.0,0.0,0.0,0.0,2250.0,100.0
27.15,0.0,0.0,0.0,0.0,0.0,0.0,2248.0,100.0
27.21,0.0,0.0,0.0,0.0,0.0,0.0,2231.0,100.0
27.09,0.0,0.0,0.0,0.0,0.0,0.0,2110.0,100.0
27.11,0.0,0.0,0.0,0.0,0.0,0.0,2231.0,100.0
27.09,0.0,0.0,0.0,0.0,0.0,0.0,2242.0,100.0
27.09,0.0,0.0,0.0,0.0,0.0,0.0,2248.0,100.0
27.15,0.0,0.0,0.0,0.0,0.0,0.0,2252.0,100.0
27.17,0.0,0.0,0.0,0.0,0.0,0.0,2261.0,100.0
27.23,0.0,0.0,0.0,0.0,0.0,0.0,2268.0,100.0
27.09,0.0,0.0,0.0,0.0,0.0,0.0,2192.0,100.0
27.09,0.0,0.0,0.0,0.0,0.0,0.0,2196.0,100.0
27.11,0.0,0.0,0.0,0.0,0.0,0.0,2219.0,100.0
27.09,0.0,0.0,0.0,0.0,0.0,0.0,2222.0,100.0
27.11,0.0,0.0,304.0,0.0,0.0,0.0,2253.0,100.0
27.11,0.0,0.0,0.0,0.0,0.0,0.0,2250.0,100.0
27.09,0.0,0.0,0.0,0.0,0.0,0.0,2259.0,100.0
27.17,0.0,0.0,0.0,0.0,0.0,0.0,2262.0,100.0
27.05,0.0,0.0,0.0,0.0,0.0,0.0,2257.0,100.0
27.05,0.0,0.0,0.0,0.0,0.0,0.0,2230.0,100.0
27.09,0.0,0.0,0.0,0.0,0.0,0.0,2232.0,100.0
27.17,0.0,0.0,0.0,0.0,0.0,0.0,2131.0,100.0
27.11,0.0,0.0,0.0,0.0,0.0,0.0,2121.0,100.0
27.11,0.0,0.0,0.0,0.0,0.0,0.0,2174.0,100.0
27.09,0.0,0.0,0.0,0.0,0.0,0.0,2195.0,100.0
27.09,0.0,0.0,0.0,0.0,0.0,0.0,2220.0,100.0
27.15,0.0,0.0,0.0,0.0,0.0,0.0,2264.0,100.0
27.11,0.0,0.0,0.0,0.0,0.0,0.0,2304.0,100.0
27.11,0.0,0.0,0.0,0.0,0.0,0.0,2277.0,100.0
27.17,0.0,0.0,0.0,0.0,0.0,0.0,2304.0,100.0
27.15,0.0,0.0,0.0,0.0,0.0,0.0,2318.0,100.0
27.05,0.0,0.0,0.0,0.0,0.0,0.0,2331.0,100.0
27.09,0.0,0.0,0.0,0.0,0.0,0.0,2326.0,100.0
27.09,0.0,0.0,0.0,0.0,0.0,0.0,2328.0,100.0
27.11,0.0,0.0,0.0,0.0,0.0,0.0,2323.0,100.0
27.09,0.0,0.0,0.0,0.0,0.0,0.0,2280.0,100.0
27.09,0.0,0.0,0.0,0.0,0.0,0.0,2329.0,100.0
27.15,0.0,0.0,0.0,0.0,0.0,0.0,2339.0,100.0
27.11,0.0,0.0,0.0,0.0,0.0,0.0,2346.0,100.0
27.17,0.0,0.0,0.0,0.0,0.0,0.0,2345.0,100.0
27.09,0.0,0.0,0.0,0.0,0.0,0.0,2353.0,100.0
27.09,0.0,0.0,0.0,0.0,0.0,0.0,2362.0,100.0
27.15,0.0,0.0,0.0,0.0,0.0,0.0,2362.0,100.0
27.21,0.0,0.0,0.0,0.0,0.0,0.0,2367.0,100.0
27.09,0.0,0.0,0.0,0.0,0.0,0.0,2365.0,100.0
27.11,0.0,0.0,0.0,0.0,0.0,0.0,2362.0,100.0
27.15,0.0,0.0,0.0,0.0,0.0,0.0,2238.0,100.0
27.09,0.0,0.0,0.0,0.0,0.0,0.0,2336.0,100.0
27.05,0.0,0.0,0.0,0.0,0.0,0.0,2342.0,100.0
27.05,0.0,0.0,0.0,0.0,0.0,0.0,2359.0,100.0
27.03,0.0,0.0,0.0,0.0,0.0,0.0,2360.0,100.0
27.03,0.0,0.0,0.0,0.0,0.0,0.0,2363.0,100.0
27.09,0.0,0.0,0.0,0.0,0.0,0.0,2369.0,100.0
27.05,0.0,0.0,0.0,0.0,0.0,0.0,2363.0,100.0
27.09,0.0,0.0,0.0,0.0,0.0,0.0,2363.0,100.0
27.09,0.0,1.0,0.0,0.0,0.0,0.0,2370.0,100.0
27.11,0.0,0.0,0.0,0.0,0.0,0.0,2371.0,100.0
27.11,0.0,0.0,0.0,0.0,0.0,0.0,2369.0,100.0
27.11,0.0,0.0,0.0,0.0,0.0,0.0,2370.0,100.0
27.09,0.0,0.0,0.0,0.0,0.0,0.0,977.0,16.0
27.29,0.0,0.0,0.0,0.0,0.0,0.0,25.0,26.0
27.17,0.0,0.0,0.0,0.0,0.0,0.0,0.0,30.0
27.17,0.0,0.0,0.0,0.0,0.0,0.0,0.0,30.0
27.21,0.0,0.0,0.0,0.0,0.0,0.0,0.0,30.0
27.35,0.0,0.0,0.0,0.0,0.0,0.0,0.0,37.0
27.69,0.0,0.0,0.0,0.0,0.0,0.0,0.0,37.0
27.95,0.0,0.0,0.0,0.0,0.0,0.0,0.0,37.0
28.17,0.0,0.0,0.0,0.0,0.0,0.0,0.0,37.0
27.31,0.0,0.0,0.0,0.0,0.0,0.0,0.0,37.0
27.31,0.0,0.0,0.0,0.0,0.0,0.0,0.0,37.0
27.37,0.0,0.0,0.0,0.0,0.0,0.0,0.0,37.0
27.35,0.0,0.0,0.0,0.0,0.0,0.0,0.0,37.0
27.29,0.0,0.0,0.0,0.0,0.0,0.0,0.0,37.0
27.31,0.0,0.0,0.0,0.0,0.0,0.0,0.0,37.0
27.35,0.0,0.0,0.0,0.0,0.0,0.0,0.0,37.0
27.41,0.0,0.0,0.0,0.0,0.0,0.0,0.0,37.0
27.31,0.0,0.0,0.0,0.0,0.0,0.0,0.0,37.0
27.35,0.0,0.0,0.0,0.0,0.0,0.0,0.0,37.0
27.35,0.0,0.0,0.0,0.0,0.0,0.0,0.0,37.0
27.35,0.0,0.0,0.0,0.0,0.0,0.0,0.0,37.0
27.29,0.0,0.0,0.0,0.0,0.0,0.0,0.0,37.0
27.37,0.0,0.0,0.0,0.0,0.0,0.0,0.0,37.0
27.31,0.0,0.0,0.0,0.0,0.0,0.0,0.0,37.0
27.29,0.0,0.0,0.0,0.0,0.0,0.0,0.0,37.0
27.31,0.0,0.0,0.0,0.0,0.0,0.0,0.0,37.0
27.35,0.0,0.0,0.0,0.0,0.0,0.0,0.0,37.0
27.37,0.0,0.0,0.0,0.0,0.0,0.0,0.0,37.0
27.41,0.0,0.0,0.0,0.0,0.0,0.0,0.0,37.0
27.55,0.0,0.0,0.0,0.0,0.0,0.0,0.0,37.0
27.59,0.0,0.0,0.0,0.0,0.0,0.0,0.0,37.0
27.59,0.0,0.0,0.0,0.0,0.0,0.0,0.0,37.0
27.61,0.0,0.0,0.0,0.0,0.0,0.0,0.0,37.0
27.55,0.0,0.0,0.0,0.0,0.0,0.0,0.0,37.0
27.53,0.0,0.0,0.0,0.0,0.0,0.0,0.0,37.0
27.53,0.0,0.0,0.0,0.0,0.0,0.0,0.0,37.0
27.59,0.0,0.0,0.0,0.0,0.0,0.0,0.0,37.0
27.59,0.0,0.0,0.0,0.0,0.0,0.0,0.0,37.0
27.59,0.0,0.0,0.0,0.0,0.0,0.0,0.0,37.0
27.55,0.0,0.0,0.0,0.0,0.0,0.0,0.0,37.0
27.59,0.0,0.0,0.0,0.0,0.0,0.0,0.0,37.0
27.37,0.0,0.0,0.0,0.0,0.0,0.0,0.0,15.0
27.35,0.0,0.0,0.0,0.0,0.0,0.0,0.0,15.0
27.35,0.0,0.0,0.0,0.0,0.0,0.0,0.0,15.0
27.29,0.0,0.0,0.0,0.0,0.0,0.0,0.0,15.0
27.47,0.0,0.0,0.0,0.0,0.0,0.0,0.0,15.0
28.59,0.0,0.0,0.0,0.0,0.0,0.0,0.0,15.0
34.01,0.0,0.0,0.0,0.0,0.0,0.0,0.0,15.0
37.67,0.0,0.0,0.0,0.0,0.0,0.0,0.0,15.0
37.67,0.0,0.0,0.0,0.0,0.0,0.0,0.0,15.0
39.21,0.0,0.0,0.0,0.0,0.0,0.0,0.0,15.0
38.37,0.0,0.0,0.0,0.0,0.0,0.0,0.0,15.0
37.93,0.0,0.0,0.0,0.0,0.0,0.0,0.0,15.0
37.83,0.0,0.0,0.0,0.0,0.0,0.0,0.0,15.0
37.29,0.0,0.0,0.0,0.0,0.0,0.0,0.0,15.0
35.01,0.0,0.0,0.0,0.0,0.0,0.0,0.0,15.0
36.53,0.0,0.0,0.0,0.0,0.0,0.0,0.0,15.0
38.01,0.0,0.0,0.0,0.0,0.0,0.0,0.0,15.0
39.05,0.0,0.0,0.0,0.0,0.0,0.0,0.0,15.0
39.39,0.0,0.0,0.0,0.0,0.0,0.0,0.0,15.0
39.41,0.0,0.0,0.0,0.0,0.0,0.0,0.0,15.0
40.11,0.0,0.0,0.0,0.0,0.0,0.0,0.0,18.0
40.39,0.0,0.0,0.0,0.0,0.0,0.0,0.0,26.0
40.43,0.0,0.0,0.0,0.0,0.0,0.0,0.0,34.0
40.39,0.0,0.0,0.0,0.0,0.0,0.0,0.0,43.0
40.27,0.0,0.0,0.0,0.0,0.0,0.0,0.0,53.0
40.55,0.0,0.0,0.0,0.0,0.0,0.0,0.0,63.0
40.65,0.0,0.0,0.0,0.0,0.0,0.0,844.0,73.0
40.63,0.0,470.0,0.0,0.0,32.0,0.0,2054.0,83.0
40.55,0.0,549.0,0.0,0.0,1.0,0.0,2087.0,92.0
40.57,0.0,460.0,0.0,0.0,0.0,0.0,2211.0,100.0
40.57,0.0,464.0,0.0,0.0,102.0,0.0,2268.0,100.0
40.57,0.0,461.0,0.0,0.0,112.0,0.0,2359.0,100.0
40.61,0.0,441.0,0.0,0.0,114.0,0.0,2369.0,100.0
40.55,0.0,443.0,0.0,0.0,124.0,0.0,2384.0,100.0
40.57,0.0,442.0,0.0,0.0,98.0,0.0,2392.0,100.0
40.53,0.0,437.0,0.0,0.0,109.0,0.0,2403.0,100.0
40.55,0.0,439.0,0.0,0.0,127.0,0.0,2412.0,100.0
40.55,0.0,320.0,0.0,0.0,31.0,0.0,2168.0,100.0
40.55,0.0,0.0,0.0,0.0,0.0,0.0,1915.0,100.0
40.55,0.0,208.0,0.0,0.0,0.0,0.0,1921.0,100.0
40.61,0.0,193.0,0.0,0.0,0.0,0.0,1927.0,100.0
40.51,0.0,214.0,0.0,0.0,0.0,0.0,1922.0,100.0
40.53,0.0,205.0,0.0,0.0,0.0,0.0,1927.0,100.0
40.55,0.0,192.0,0.0,0.0,0.0,0.0,1882.0,100.0
40.47,0.0,196.0,0.0,0.0,0.0,0.0,1939.0,100.0
40.51,0.0,196.0,0.0,0.0,0.0,0.0,1943.0,100.0
40.45,0.0,198.0,0.0,0.0,0.0,0.0,1947.0,100.0
40.51,0.0,194.0,0.0,0.0,0.0,0.0,1947.0,100.0
40.55,0.0,190.0,0.0,0.0,0.0,0.0,1957.0,100.0
40.51,0.0,204.0,0.0,0.0,0.0,0.0,1923.0,100.0
40.55,0.0,211.0,0.0,0.0,0.0,0.0,1927.0,100.0
40.55,0.0,211.0,0.0,0.0,43.0,0.0,1924.0,100.0
40.51,0.0,206.0,0.0,0.0,0.0,0.0,1973.0,100.0
40.51,0.0,192.0,0.0,0.0,0.0,0.0,1919.0,100.0
40.51,0.0,196.0,0.0,0.0,0.0,0.0,1967.0,100.0
40.45,0.0,200.0,0.0,0.0,0.0,0.0,1969.0,100.0
40.45,0.0,204.0,0.0,0.0,0.0,0.0,1969.0,100.0
40.39,0.0,199.0,0.0,0.0,0.0,0.0,1975.0,100.0
40.39,0.0,195.0,0.0,0.0,0.0,0.0,1969.0,100.0
40.35,0.0,188.0,0.0,0.0,0.0,0.0,1981.0,100.0
40.35,0.0,205.0,0.0,0.0,0.0,0.0,1976.0,100.0
40.29,0.0,198.0,0.0,0.0,0.0,0.0,1975.0,100.0
40.31,0.0,196.0,0.0,0.0,0.0,0.0,1983.0,100.0
40.35,0.0,205.0,0.0,0.0,0.0,0.0,1979.0,100.0
40.35,0.0,197.0,0.0,0.0,0.0,0.0,1980.0,100.0
40.35,0.0,225.0,0.0,0.0,0.0,0.0,1987.0,100.0
40.35,0.0,202.0,0.0,0.0,0.0,0.0,1994.0,100.0
40.35,0.0,215.0,0.0,0.0,0.0,0.0,1962.0,100.0
40.31,0.0,0.0,0.0,0.0,0.0,0.0,1972.0,100.0
40.29,0.0,207.0,0.0,0.0,0.0,0.0,1980.0,100.0
40.29,0.0,190.0,0.0,0.0,0.0,0.0,1973.0,100.0
40.25,0.0,131.0,0.0,0.0,0.0,0.0,1966.0,100.0
40.25,0.0,192.0,0.0,0.0,0.0,0.0,1971.0,100.0
40.21,0.0,203.0,0.0,0.0,0.0,0.0,1959.0,100.0
40.21,0.0,192.0,0.0,0.0,0.0,0.0,1980.0,100.0
40.19,0.0,193.0,0.0,0.0,0.0,0.0,1979.0,100.0
40.25,0.0,345.0,0.0,0.0,0.0,0.0,1971.0,100.0
40.19,0.0,0.0,0.0,0.0,0.0,0.0,1990.0,100.0
40.25,0.0,194.0,0.0,0.0,0.0,0.0,1986.0,100.0
40.21,0.0,205.0,0.0,0.0,0.0,0.0,1990.0,100.0
40.19,0.0,208.0,0.0,0.0,0.0,0.0,1990.0,100.0
40.27,0.0,207.0,0.0,0.0,0.0,0.0,2000.0,100.0
40.17,0.0,198.0,0.0,0.0,0.0,0.0,1994.0,100.0
40.19,0.0,40.0,0.0,0.0,0.0,0.0,2000.0,100.0
40.17,0.0,199.0,0.0,0.0,0.0,0.0,2004.0,100.0
40.19,0.0,365.0,0.0,0.0,0.0,0.0,2008.0,100.0
40.21,0.0,195.0,0.0,0.0,0.0,0.0,2002.0,100.0
40.17,0.0,197.0,0.0,0.0,0.0,0.0,2011.0,100.0
40.11,0.0,196.0,0.0,0.0,0.0,0.0,2010.0,100.0
40.13,0.0,0.0,0.0,0.0,0.0,0.0,2010.0,100.0
40.21,0.0,197.0,0.0,0.0,0.0,0.0,2011.0,100.0
40.17,288.0,196.0,0.0,0.0,0.0,0.0,2013.0,100.0
40.19,0.0,195.0,0.0,0.0,0.0,0.0,2016.0,100.0
40.13,0.0,194.0,0.0,0.0,0.0,0.0,2009.0,100.0
40.13,0.0,194.0,0.0,0.0,0.0,0.0,2011.0,100.0
40.09,0.0,204.0,0.0,0.0,0.0,0.0,2009.0,100.0
40.01,0.0,198.0,0.0,0.0,0.0,0.0,1998.0,100.0
40.09,0.0,194.0,0.0,0.0,0.0,0.0,2016.0,100.0
40.07,0.0,192.0,0.0,0.0,0.0,0.0,2010.0,100.0
40.07,0.0,208.0,0.0,0.0,0.0,0.0,2015.0,100.0
40.13,0.0,202.0,0.0,0.0,0.0,0.0,2024.0,100.0
40.09,0.0,208.0,0.0,0.0,0.0,0.0,2019.0,100.0
40.11,0.0,247.0,0.0,0.0,0.0,0.0,2017.0,100.0
40.17,0.0,197.0,0.0,0.0,0.0,0.0,2017.0,15.0
40.13,0.0,0.0,0.0,0.0,0.0,0.0,38.0,15.0
30.09,0.0,0.0,0.0,0.0,0.0,0.0,0.0,15.0
27.95,0.0,0.0,0.0,0.0,0.0,0.0,0.0,15.0
27.91,0.0,0.0,0.0,0.0,0.0,0.0,0.0,15.0
27.81,0.0,0.0,0.0,0.0,0.0,0.0,0.0,15.0
28.27,0.0,0.0,0.0,0.0,0.0,0.0,0.0,15.0
28.37,0.0,0.0,0.0,0.0,0.0,0.0,0.0,15.0
28.23,0.0,0.0,0.0,0.0,0.0,0.0,0.0,15.0
28.83,0.0,0.0,0.0,0.0,0.0,0.0,0.0,15.0
28.17,0.0,0.0,0.0,0.0,0.0,0.0,0.0,15.0
27.79,0.0,0.0,0.0,0.0,0.0,0.0,0.0,19.0
27.61,0.0,0.0,0.0,0.0,0.0,0.0,0.0,24.0
27.49,0.0,0.0,0.0,0.0,0.0,0.0,0.0,24.0
27.49,0.0,0.0,0.0,0.0,0.0,0.0,0.0,24.0
27.53,0.0,0.0,0.0,0.0,0.0,0.0,0.0,31.0
27.55,0.0,0.0,0.0,0.0,0.0,0.0,0.0,33.0
27.59,0.0,0.0,0.0,0.0,0.0,0.0,0.0,33.0
27.67,0.0,0.0,0.0,0.0,0.0,0.0,0.0,37.0
27.81,0.0,0.0,0.0,0.0,0.0,0.0,0.0,38.0
28.01,0.0,0.0,0.0,0.0,0.0,0.0,0.0,38.0
28.05,0.0,0.0,0.0,0.0,0.0,0.0,0.0,38.0
28.05,0.0,0.0,0.0,0.0,0.0,0.0,0.0,38.0
28.17,0.0,0.0,0.0,0.0,0.0,0.0,0.0,38.0
28.13,0.0,0.0,0.0,0.0,0.0,0.0,0.0,38.0
28.13,0.0,0.0,0.0,0.0,0.0,0.0,0.0,38.0
28.11,0.0,0.0,0.0,0.0,0.0,0.0,0.0,38.0
28.13,0.0,0.0,0.0,0.0,0.0,0.0,0.0,38.0
28.17,0.0,0.0,0.0,0.0,0.0,0.0,0.0,38.0
28.11,0.0,0.0,0.0,0.0,0.0,0.0,0.0,38.0
28.17,0.0,0.0,0.0,0.0,0.0,0.0,0.0,38.0
28.11,0.0,0.0,0.0,0.0,0.0,0.0,0.0,38.0
28.11,0.0,0.0,0.0,0.0,0.0,0.0,0.0,38.0
28.17,0.0,0.0,0.0,0.0,0.0,0.0,0.0,38.0
28.11,0.0,0.0,0.0,0.0,0.0,0.0,0.0,38.0
28.17,0.0,0.0,0.0,0.0,0.0,0.0,0.0,38.0
28.11,0.0,0.0,0.0,0.0,0.0,0.0,0.0,38.0
28.11,0.0,0.0,0.0,0.0,0.0,0.0,0.0,38.0
28.01,0.0,0.0,0.0,0.0,0.0,0.0,0.0,38.0
28.07,32.0,0.0,0.0,0.0,0.0,0.0,0.0,38.0
28.07,0.0,0.0,0.0,0.0,0.0,0.0,0.0,38.0
28.13,0.0,0.0,0.0,0.0,0.0,0.0,0.0,38.0
28.11,0.0,0.0,0.0,0.0,0.0,0.0,0.0,15.0
27.81,0.0,0.0,0.0,0.0,0.0,0.0,0.0,15.0
27.67,0.0,0.0,0.0,0.0,0.0,0.0,0.0,15.0
27.73,0.0,0.0,0.0,0.0,0.0,0.0,0.0,15.0
27.73,0.0,0.0,0.0,0.0,0.0,0.0,0.0,15.0
27.73,0.0,0.0,0.0,0.0,0.0,0.0,0.0,15.0
28.25,0.0,0.0,0.0,0.0,0.0,0.0,0.0,15.0
28.65,0.0,0.0,0.0,0.0,0.0,0.0,0.0,15.0
27.99,0.0,0.0,0.0,0.0,0.0,0.0,0.0,15.0
27.87,0.0,0.0,0.0,0.0,0.0,0.0,0.0,15.0
27.73,0.0,0.0,0.0,0.0,0.0,0.0,0.0,15.0
28.11,0.0,0.0,0.0,0.0,0.0,0.0,0.0,15.0
27.79,0.0,0.0,0.0,0.0,0.0,0.0,0.0,15.0
28.13,0.0,0.0,0.0,0.0,0.0,0.0,0.0,15.0
27.81,0.0,0.0,0.0,0.0,0.0,0.0,0.0,15.0
27.95,0.0,0.0,0.0,0.0,0.0,0.0,0.0,15.0
27.73,0.0,0.0,0.0,0.0,0.0,0.0,0.0,15.0
27.73,0.0,0.0,0.0,0.0,0.0,0.0,0.0,15.0
27.49,0.0,0.0,0.0,0.0,0.0,0.0,0.0,15.0
27.47,0.0,0.0,0.0,0.0,0.0,0.0,0.0,16.0
27.53,0.0,0.0,0.0,0.0,0.0,0.0,0.0,25.0
27.49,0.0,0.0,0.0,0.0,0.0,0.0,0.0,35.0
27.35,0.0,0.0,0.0,0.0,0.0,0.0,0.0,45.0
27.55,0.0,0.0,0.0,0.0,0.0,0.0,0.0,54.0
27.53,0.0,0.0,0.0,0.0,0.0,0.0,0.0,64.0
27.75,0.0,0.0,0.0,0.0,0.0,0.0,0.0,74.0
27.73,0.0,0.0,0.0,0.0,0.0,0.0,1528.0,83.0
27.73,0.0,0.0,0.0,0.0,0.0,0.0,2314.0,95.0
27.69,0.0,0.0,0.0,0.0,0.0,0.0,2386.0,100.0
27.69,0.0,0.0,0.0,0.0,0.0,0.0,2411.0,100.0
27.67,0.0,0.0,0.0,0.0,0.0,0.0,2428.0,100.0
27.37,0.0,0.0,0.0,0.0,0.0,0.0,2437.0,100.0
27.31,0.0,0.0,0.0,0.0,0.0,0.0,2452.0,100.0
27.31,0.0,0.0,0.0,0.0,0.0,0.0,2453.0,100.0
27.25,0.0,0.0,0.0,0.0,0.0,0.0,2460.0,100.0
27.29,0.0,0.0,0.0,0.0,0.0,0.0,2469.0,100.0
27.25,0.0,0.0,0.0,0.0,0.0,0.0,2409.0,100.0
27.31,0.0,0.0,0.0,0.0,0.0,0.0,2404.0,100.0
27.31,0.0,0.0,0.0,0.0,0.0,0.0,2409.0,100.0
27.21,0.0,0.0,0.0,0.0,0.0,0.0,2403.0,100.0
27.11,0.0,0.0,0.0,0.0,0.0,0.0,2414.0,100.0
27.15,0.0,0.0,0.0,0.0,0.0,0.0,2412.0,100.0
27.15,0.0,0.0,0.0,0.0,0.0,0.0,2410.0,100.0
27.17,0.0,0.0,0.0,0.0,0.0,0.0,2412.0,100.0
27.21,0.0,0.0,0.0,0.0,0.0,0.0,2404.0,100.0
27.17,0.0,0.0,0.0,0.0,0.0,0.0,2411.0,100.0
27.17,0.0,0.0,0.0,0.0,0.0,0.0,2409.0,100.0
27.15,0.0,0.0,0.0,0.0,0.0,0.0,2411.0,100.0
27.25,0.0,0.0,0.0,0.0,0.0,0.0,2407.0,100.0
27.23,0.0,0.0,0.0,0.0,0.0,0.0,2418.0,100.0
27.31,0.0,0.0,0.0,0.0,0.0,0.0,2427.0,100.0
27.31,0.0,0.0,0.0,0.0,0.0,0.0,2413.0,100.0
27.31,0.0,0.0,0.0,0.0,0.0,0.0,2425.0,100.0
27.37,0.0,0.0,0.0,0.0,0.0,0.0,2427.0,100.0
27.37,0.0,0.0,0.0,0.0,0.0,0.0,2415.0,100.0
27.41,0.0,0.0,0.0,0.0,0.0,0.0,2426.0,100.0
27.35,0.0,0.0,0.0,0.0,0.0,0.0,2418.0,100.0
27.29,0.0,0.0,0.0,0.0,0.0,0.0,2419.0,100.0
27.31,0.0,0.0,0.0,0.0,0.0,0.0,2416.0,100.0
27.21,0.0,0.0,0.0,0.0,0.0,0.0,2406.0,100.0
27.35,0.0,0.0,0.0,0.0,0.0,0.0,2414.0,100.0
27.35,0.0,0.0,0.0,0.0,0.0,0.0,2416.0,100.0
27.37,0.0,0.0,0.0,0.0,0.0,0.0,2419.0,100.0
27.43,0.0,0.0,0.0,0.0,0.0,0.0,2422.0,100.0
27.37,0.0,0.0,0.0,0.0,0.0,0.0,2417.0,100.0
27.29,0.0,0.0,0.0,0.0,0.0,0.0,2422.0,100.0
27.31,0.0,0.0,0.0,0.0,0.0,0.0,2417.0,100.0
27.35,0.0,0.0,0.0,0.0,0.0,0.0,2426.0,100.0
27.31,0.0,0.0,0.0,0.0,0.0,0.0,2429.0,100.0
27.29,0.0,0.0,0.0,0.0,0.0,0.0,2422.0,100.0
27.29,0.0,0.0,0.0,0.0,0.0,0.0,2425.0,100.0
27.35,0.0,0.0,0.0,0.0,0.0,0.0,2434.0,100.0
27.31,0.0,0.0,0.0,0.0,0.0,0.0,2435.0,100.0
27.31,0.0,0.0,0.0,0.0,0.0,0.0,2427.0,100.0
27.31,0.0,0.0,0.0,0.0,0.0,0.0,2429.0,100.0
27.29,0.0,0.0,0.0,0.0,0.0,0.0,2427.0,100.0
27.29,0.0,0.0,0.0,0.0,0.0,0.0,2420.0,100.0
27.35,0.0,0.0,0.0,0.0,0.0,0.0,2412.0,100.0
27.31,0.0,0.0,0.0,0.0,0.0,0.0,2407.0,100.0
27.29,0.0,0.0,0.0,0.0,0.0,0.0,2410.0,100.0
27.29,0.0,0.0,0.0,0.0,0.0,0.0,2410.0,100.0
27.37,0.0,0.0,0.0,0.0,0.0,0.0,2412.0,100.0
27.29,0.0,0.0,0.0,0.0,0.0,0.0,2419.0,100.0
27.31,0.0,0.0,0.0,0.0,0.0,0.0,2407.0,100.0
27.35,0.0,0.0,0.0,0.0,0.0,0.0,2405.0,100.0
27.31,0.0,0.0,0.0,0.0,0.0,0.0,2405.0,100.0
27.23,0.0,0.0,0.0,0.0,0.0,0.0,2405.0,100.0
27.29,0.0,0.0,0.0,0.0,0.0,0.0,2400.0,100.0
27.29,0.0,0.0,0.0,0.0,0.0,0.0,2403.0,100.0
27.35,0.0,0.0,0.0,0.0,0.0,0.0,2397.0,100.0
27.31,0.0,0.0,0.0,0.0,0.0,0.0,2403.0,100.0
27.35,0.0,0.0,0.0,0.0,0.0,0.0,2399.0,100.0
27.37,0.0,0.0,0.0,0.0,0.0,0.0,2399.0,100.0
27.31,0.0,0.0,0.0,0.0,0.0,0.0,2410.0,100.0
27.31,0.0,0.0,0.0,0.0,0.0,0.0,2402.0,100.0
27.35,0.0,0.0,0.0,0.0,0.0,0.0,2403.0,100.0
27.31,0.0,0.0,0.0,0.0,0.0,0.0,2416.0,100.0
27.37,0.0,32.0,0.0,0.0,0.0,0.0,2407.0,100.0
27.35,0.0,0.0,0.0,0.0,0.0,0.0,2403.0,100.0
27.31,0.0,0.0,0.0,0.0,0.0,0.0,2422.0,100.0
27.35,0.0,0.0,0.0,0.0,0.0,0.0,2422.0,100.0
27.31,0.0,0.0,0.0,0.0,0.0,0.0,2418.0,100.0
27.31,0.0,0.0,0.0,0.0,0.0,0.0,2418.0,100.0
27.31,0.0,0.0,0.0,0.0,0.0,0.0,2418.0,100.0
27.29,0.0,0.0,0.0,0.0,0.0,0.0,410.0,15.0
27.55,0.0,0.0,0.0,0.0,0.0,0.0,0.0,26.0
27.35,0.0,0.0,0.0,0.0,0.0,0.0,0.0,29.0
27.35,0.0,0.0,0.0,0.0,0.0,0.0,0.0,29.0
27.43,0.0,0.0,0.0,0.0,0.0,0.0,0.0,29.0
27.41,0.0,0.0,0.0,0.0,0.0,0.0,0.0,29.0
27.61,0.0,0.0,0.0,0.0,0.0,0.0,0.0,29.0
27.69,0.0,0.0,0.0,0.0,0.0,0.0,0.0,29.0
27.67,0.0,0.0,0.0,0.0,0.0,0.0,0.0,29.0
27.67,0.0,0.0,0.0,0.0,0.0,0.0,0.0,29.0
27.67,0.0,0.0,0.0,0.0,0.0,0.0,4.0,29.0
27.67,0.0,0.0,0.0,0.0,0.0,0.0,0.0,29.0
27.67,0.0,0.0,0.0,0.0,0.0,0.0,0.0,29.0
27.75,0.0,0.0,0.0,0.0,0.0,0.0,0.0,29.0
27.69,0.0,0.0,0.0,0.0,0.0,0.0,0.0,29.0
27.63,0.0,0.0,0.0,0.0,0.0,0.0,0.0,29.0
27.61,0.0,0.0,0.0,0.0,0.0,0.0,0.0,29.0
27.63,0.0,0.0,0.0,0.0,0.0,0.0,0.0,29.0
27.67,0.0,0.0,0.0,0.0,0.0,0.0,0.0,29.0
27.67,0.0,0.0,0.0,0.0,0.0,0.0,0.0,29.0
27.67,0.0,0.0,0.0,0.0,0.0,0.0,0.0,29.0
27.59,0.0,0.0,0.0,0.0,0.0,0.0,0.0,29.0
