tempMLX,FSR_A1,FSR_A2,FSR_A3,FSR_B1,FSR_B2,FSR_B3,FSR_C,porcAper
0.0,0.0,0.0,0.0,0.0,0.0,0.0,0.0,15.0
0.0,0.0,0.0,0.0,0.0,0.0,0.0,0.0,15.0
27.03,0.0,0.0,0.0,0.0,0.0,0.0,0.0,15.0
27.03,0.0,0.0,0.0,0.0,0.0,0.0,0.0,15.0
26.99,0.0,0.0,0.0,0.0,0.0,0.0,0.0,15.0
27.05,0.0,0.0,0.0,0.0,0.0,0.0,0.0,15.0
27.03,0.0,0.0,0.0,0.0,0.0,0.0,0.0,15.0
26.93,0.0,0.0,0.0,0.0,0.0,0.0,0.0,15.0
26.99,0.0,0.0,0.0,0.0,0.0,0.0,0.0,15.0
26.97,0.0,0.0,0.0,0.0,0.0,0.0,0.0,15.0
26.93,0.0,0.0,0.0,0.0,0.0,0.0,0.0,15.0
26.97,0.0,0.0,0.0,0.0,0.0,0.0,0.0,15.0
26.97,0.0,0.0,0.0,0.0,0.0,0.0,0.0,15.0
26.93,0.0,0.0,0.0,0.0,0.0,0.0,0.0,15.0
26.97,0.0,16.0,0.0,0.0,0.0,0.0,0.0,15.0
26.93,0.0,0.0,0.0,0.0,0.0,0.0,0.0,15.0
26.91,0.0,0.0,0.0,80.0,0.0,0.0,0.0,15.0
26.97,0.0,0.0,0.0,0.0,0.0,0.0,0.0,15.0
26.97,0.0,0.0,0.0,0.0,0.0,0.0,0.0,15.0
26.99,0.0,0.0,0.0,0.0,0.0,0.0,0.0,15.0
26.99,0.0,0.0,0.0,0.0,0.0,0.0,0.0,15.0
26.97,0.0,0.0,0.0,0.0,0.0,0.0,0.0,15.0
26.97,0.0,0.0,0.0,0.0,0.0,0.0,0.0,15.0
26.91,0.0,0.0,0.0,0.0,0.0,0.0,0.0,15.0
27.03,0.0,0.0,0.0,0.0,0.0,0.0,0.0,15.0
27.05,0.0,0.0,0.0,0.0,0.0,0.0,0.0,15.0
26.97,0.0,0.0,0.0,0.0,0.0,0.0,0.0,15.0
26.97,0.0,0.0,0.0,0.0,0.0,0.0,0.0,15.0
27.05,0.0,0.0,0.0,0.0,0.0,0.0,0.0,15.0
26.97,0.0,0.0,0.0,0.0,0.0,0.0,0.0,15.0
27.03,0.0,0.0,0.0,0.0,0.0,0.0,0.0,15.0
26.97,0.0,0.0,0.0,0.0,0.0,0.0,0.0,15.0
26.97,0.0,0.0,0.0,0.0,0.0,0.0,0.0,15.0
26.93,0.0,0.0,0.0,0.0,0.0,0.0,0.0,15.0
26.97,0.0,0.0,0.0,0.0,0.0,0.0,0.0,15.0
26.97,0.0,0.0,0.0,0.0,0.0,0.0,0.0,15.0
26.91,0.0,0.0,0.0,0.0,0.0,0.0,0.0,15.0
26.91,0.0,0.0,0.0,0.0,0.0,0.0,0.0,15.0
26.97,0.0,0.0,0.0,0.0,0.0,0.0,0.0,15.0
26.91,0.0,0.0,0.0,0.0,0.0,0.0,0.0,15.0
26.93,0.0,69.0,0.0,0.0,0.0,0.0,0.0,15.0
26.93,0.0,0.0,0.0,0.0,0.0,0.0,0.0,15.0
26.91,0.0,0.0,0.0,0.0,0.0,0.0,0.0,15.0
26.87,0.0,0.0,0.0,0.0,0.0,0.0,0.0,15.0
26.93,0.0,0.0,0.0,0.0,0.0,0.0,0.0,15.0
26.99,0.0,0.0,0.0,0.0,0.0,0.0,0.0,15.0
26.93,0.0,0.0,0.0,0.0,0.0,0.0,0.0,15.0
26.97,0.0,0.0,0.0,0.0,0.0,0.0,0.0,15.0
26.93,0.0,0.0,0.0,0.0,0.0,0.0,0.0,15.0
26.93,0.0,0.0,0.0,0.0,0.0,0.0,0.0,15.0
26.97,0.0,0.0,0.0,0.0,0.0,0.0,0.0,15.0
26.97,0.0,0.0,0.0,0.0,0.0,0.0,0.0,15.0
26.97,0.0,0.0,0.0,0.0,0.0,0.0,0.0,15.0
26.91,0.0,0.0,0.0,0.0,0.0,0.0,0.0,15.0
26.97,0.0,0.0,0.0,0.0,0.0,0.0,0.0,15.0
26.87,0.0,0.0,0.0,48.0,0.0,0.0,0.0,15.0
26.87,0.0,0.0,0.0,0.0,0.0,0.0,0.0,15.0
26.85,0.0,0.0,0.0,0.0,0.0,0.0,0.0,15.0
26.93,0.0,0.0,0.0,0.0,0.0,0.0,0.0,15.0
26.87,0.0,0.0,0.0,0.0,0.0,0.0,0.0,15.0
26.93,0.0,0.0,0.0,0.0,0.0,0.0,0.0,15.0
26.85,0.0,0.0,0.0,0.0,0.0,0.0,0.0,15.0
26.87,0.0,0.0,0.0,0.0,0.0,0.0,0.0,15.0
26.87,0.0,0.0,0.0,0.0,0.0,0.0,0.0,15.0
26.93,0.0,0.0,0.0,0.0,0.0,0.0,0.0,15.0
26.93,0.0,0.0,0.0,0.0,0.0,0.0,0.0,15.0
26.93,0.0,0.0,0.0,0.0,0.0,0.0,0.0,15.0
26.93,0.0,0.0,0.0,0.0,0.0,0.0,0.0,15.0
26.97,0.0,0.0,0.0,0.0,0.0,0.0,0.0,15.0
26.97,0.0,0.0,0.0,0.0,0.0,0.0,0.0,15.0
26.91,0.0,0.0,0.0,0.0,0.0,0.0,0.0,15.0
26.93,0.0,0.0,0.0,0.0,0.0,0.0,0.0,15.0
26.93,0.0,0.0,0.0,0.0,0.0,0.0,0.0,15.0
26.91,0.0,0.0,0.0,0.0,0.0,0.0,0.0,15.0
26.93,0.0,0.0,0.0,0.0,0.0,0.0,0.0,15.0
26.99,0.0,0.0,0.0,0.0,0.0,0.0,0.0,15.0
26.99,0.0,0.0,0.0,0.0,0.0,0.0,0.0,15.0
26.99,0.0,0.0,0.0,0.0,0.0,0.0,0.0,15.0
26.97,0.0,0.0,0.0,0.0,0.0,0.0,0.0,15.0
26.99,0.0,0.0,0.0,0.0,0.0,0.0,0.0,15.0
26.97,0.0,0.0,0.0,0.0,0.0,0.0,0.0,15.0
26.97,0.0,0.0,0.0,0.0,0.0,0.0,0.0,15.0
26.99,0.0,0.0,0.0,0.0,0.0,0.0,0.0,15.0
26.99,0.0,0.0,0.0,0.0,0.0,0.0,0.0,15.0
26.97,0.0,0.0,0.0,0.0,0.0,0.0,0.0,15.0
26.99,0.0,0.0,0.0,0.0,0.0,0.0,0.0,15.0
26.97,0.0,0.0,0.0,0.0,0.0,0.0,0.0,15.0
26.97,0.0,0.0,0.0,0.0,0.0,0.0,0.0,15.0
26.91,0.0,0.0,0.0,0.0,0.0,0.0,0.0,15.0
26.97,0.0,0.0,0.0,0.0,0.0,0.0,0.0,15.0
26.97,0.0,0.0,0.0,0.0,0.0,0.0,0.0,15.0
26.93,0.0,0.0,0.0,0.0,0.0,0.0,0.0,15.0
26.97,0.0,0.0,0.0,0.0,0.0,0.0,0.0,15.0
26.91,0.0,0.0,0.0,0.0,0.0,0.0,0.0,15.0
26.87,0.0,0.0,0.0,0.0,0.0,0.0,0.0,15.0
26.87,0.0,0.0,0.0,0.0,0.0,0.0,0.0,15.0
26.91,0.0,0.0,0.0,0.0,0.0,0.0,0.0,15.0
26.87,0.0,0.0,0.0,0.0,0.0,0.0,0.0,15.0
26.85,0.0,0.0,0.0,0.0,0.0,0.0,0.0,15.0
26.91,0.0,0.0,0.0,0.0,0.0,0.0,0.0,15.0
26.91,0.0,0.0,0.0,0.0,0.0,0.0,0.0,15.0
26.97,0.0,0.0,0.0,0.0,0.0,0.0,0.0,15.0
26.93,0.0,0.0,0.0,0.0,0.0,0.0,0.0,15.0
26.91,0.0,0.0,0.0,0.0,0.0,0.0,0.0,15.0
26.91,0.0,0.0,0.0,0.0,0.0,0.0,0.0,15.0
26.87,0.0,0.0,0.0,0.0,0.0,0.0,0.0,15.0
26.91,0.0,0.0,0.0,0.0,0.0,0.0,0.0,15.0
26.91,0.0,0.0,0.0,0.0,0.0,0.0,0.0,15.0
26.91,0.0,0.0,0.0,0.0,0.0,0.0,0.0,15.0
26.93,0.0,0.0,0.0,0.0,0.0,0.0,0.0,15.0
26.87,0.0,0.0,0.0,0.0,0.0,0.0,0.0,15.0
26.93,0.0,0.0,0.0,0.0,0.0,0.0,0.0,15.0
26.93,0.0,0.0,0.0,0.0,0.0,0.0,0.0,15.0
26.93,0.0,0.0,0.0,0.0,0.0,0.0,0.0,15.0
26.93,0.0,0.0,0.0,0.0,0.0,0.0,0.0,15.0
26.87,0.0,0.0,0.0,0.0,0.0,0.0,0.0,15.0
26.87,0.0,0.0,0.0,0.0,144.0,0.0,0.0,15.0
26.93,0.0,0.0,0.0,0.0,0.0,0.0,0.0,15.0
26.93,0.0,0.0,0.0,0.0,0.0,0.0,0.0,15.0
26.99,0.0,0.0,0.0,0.0,0.0,0.0,0.0,15.0
26.99,0.0,0.0,0.0,0.0,0.0,0.0,0.0,15.0
27.17,0.0,0.0,0.0,0.0,0.0,0.0,0.0,15.0
27.21,0.0,0.0,0.0,0.0,0.0,0.0,0.0,15.0
27.21,0.0,0.0,0.0,0.0,0.0,0.0,0.0,15.0
27.25,0.0,0.0,0.0,0.0,0.0,0.0,0.0,15.0
27.29,0.0,0.0,0.0,0.0,0.0,0.0,0.0,15.0
27.25,0.0,0.0,0.0,0.0,0.0,0.0,0.0,15.0
27.31,0.0,0.0,0.0,0.0,0.0,0.0,0.0,15.0
27.21,0.0,0.0,0.0,0.0,0.0,0.0,0.0,15.0
27.35,0.0,0.0,0.0,0.0,0.0,0.0,0.0,15.0
27.31,0.0,0.0,0.0,0.0,0.0,0.0,0.0,15.0
27.29,0.0,0.0,0.0,0.0,0.0,0.0,0.0,15.0
27.29,0.0,0.0,0.0,0.0,0.0,0.0,0.0,15.0
27.41,64.0,0.0,0.0,0.0,0.0,0.0,0.0,15.0
27.29,0.0,0.0,0.0,0.0,0.0,0.0,0.0,17.0
27.29,0.0,0.0,0.0,0.0,0.0,0.0,0.0,19.0
27.31,0.0,0.0,0.0,0.0,0.0,0.0,0.0,19.0
27.21,0.0,0.0,0.0,0.0,0.0,0.0,0.0,19.0
27.23,0.0,0.0,0.0,0.0,0.0,0.0,0.0,19.0
27.15,0.0,0.0,0.0,0.0,0.0,0.0,0.0,19.0
27.09,0.0,0.0,0.0,0.0,0.0,0.0,0.0,19.0
27.11,0.0,0.0,0.0,0.0,0.0,0.0,0.0,19.0
27.11,0.0,0.0,0.0,0.0,0.0,0.0,0.0,19.0
27.11,0.0,0.0,0.0,0.0,0.0,0.0,0.0,19.0
27.15,0.0,0.0,0.0,0.0,0.0,0.0,0.0,22.0
27.11,0.0,0.0,0.0,0.0,0.0,0.0,0.0,29.0
27.17,0.0,0.0,0.0,0.0,0.0,0.0,0.0,39.0
27.15,0.0,0.0,0.0,0.0,0.0,0.0,0.0,49.0
27.15,0.0,0.0,0.0,0.0,0.0,0.0,0.0,59.0
27.15,0.0,0.0,0.0,0.0,0.0,0.0,0.0,69.0
27.09,0.0,0.0,0.0,0.0,0.0,0.0,0.0,79.0
27.15,0.0,0.0,0.0,0.0,0.0,0.0,182.0,88.0
27.15,0.0,0.0,0.0,0.0,0.0,0.0,250.0,98.0
27.15,0.0,0.0,0.0,0.0,0.0,0.0,277.0,100.0
27.11,0.0,0.0,0.0,0.0,0.0,0.0,279.0,100.0
27.09,0.0,0.0,0.0,0.0,0.0,0.0,295.0,100.0
27.09,0.0,0.0,0.0,0.0,0.0,0.0,291.0,100.0
27.11,0.0,0.0,0.0,0.0,0.0,0.0,298.0,100.0
27.17,0.0,0.0,0.0,0.0,0.0,0.0,309.0,100.0
27.23,0.0,0.0,0.0,0.0,0.0,0.0,309.0,100.0
27.21,0.0,0.0,0.0,0.0,0.0,0.0,320.0,100.0
27.17,0.0,0.0,0.0,0.0,0.0,0.0,314.0,100.0
27.21,0.0,0.0,0.0,0.0,0.0,0.0,315.0,100.0
27.15,0.0,0.0,0.0,0.0,0.0,0.0,329.0,100.0
27.17,0.0,0.0,0.0,0.0,0.0,0.0,324.0,100.0
27.21,0.0,0.0,0.0,0.0,0.0,0.0,333.0,100.0
27.21,0.0,0.0,0.0,0.0,0.0,0.0,332.0,100.0
27.17,0.0,0.0,0.0,0.0,0.0,0.0,332.0,100.0
27.17,0.0,0.0,0.0,0.0,0.0,0.0,326.0,100.0
27.09,0.0,0.0,0.0,0.0,0.0,0.0,333.0,100.0
27.09,0.0,0.0,0.0,0.0,0.0,0.0,331.0,100.0
27.09,0.0,0.0,0.0,0.0,0.0,0.0,328.0,100.0
27.05,0.0,0.0,0.0,0.0,0.0,0.0,326.0,100.0
27.09,0.0,0.0,0.0,0.0,0.0,0.0,331.0,100.0
27.05,0.0,0.0,0.0,0.0,0.0,0.0,328.0,100.0
27.09,0.0,0.0,0.0,0.0,0.0,0.0,330.0,100.0
26.99,0.0,0.0,0.0,0.0,0.0,0.0,323.0,100.0
27.11,0.0,0.0,0.0,0.0,0.0,0.0,329.0,100.0
27.11,0.0,0.0,0.0,0.0,0.0,0.0,334.0,100.0
27.15,0.0,0.0,0.0,0.0,0.0,0.0,331.0,100.0
27.05,0.0,0.0,0.0,0.0,0.0,0.0,334.0,100.0
27.11,0.0,0.0,0.0,0.0,0.0,0.0,334.0,100.0
27.05,0.0,0.0,0.0,0.0,0.0,0.0,334.0,100.0
26.99,0.0,0.0,0.0,0.0,0.0,0.0,330.0,100.0
26.99,0.0,0.0,0.0,0.0,0.0,0.0,326.0,100.0
27.05,0.0,0.0,0.0,0.0,0.0,0.0,331.0,100.0
27.09,0.0,0.0,0.0,0.0,0.0,0.0,334.0,100.0
27.09,0.0,0.0,0.0,0.0,0.0,0.0,333.0,100.0
27.09,0.0,0.0,0.0,0.0,0.0,0.0,333.0,100.0
27.11,0.0,0.0,0.0,0.0,0.0,0.0,335.0,100.0
27.15,0.0,0.0,0.0,0.0,0.0,0.0,332.0,100.0
27.15,0.0,0.0,0.0,0.0,0.0,0.0,336.0,100.0
27.21,0.0,0.0,0.0,0.0,0.0,0.0,333.0,100.0
27.15,0.0,0.0,0.0,0.0,0.0,0.0,334.0,100.0
27.09,0.0,0.0,0.0,0.0,0.0,0.0,341.0,100.0
27.05,0.0,0.0,0.0,0.0,0.0,0.0,341.0,100.0
27.09,0.0,0.0,0.0,0.0,0.0,0.0,341.0,100.0
27.15,0.0,0.0,0.0,0.0,0.0,0.0,336.0,100.0
27.09,0.0,0.0,0.0,0.0,0.0,0.0,335.0,100.0
27.11,0.0,0.0,0.0,0.0,0.0,0.0,337.0,100.0
27.11,0.0,0.0,0.0,0.0,0.0,0.0,333.0,100.0
27.11,64.0,0.0,0.0,0.0,0.0,0.0,336.0,100.0
27.15,0.0,0.0,0.0,0.0,0.0,0.0,333.0,100.0
27.15,0.0,0.0,0.0,0.0,0.0,0.0,338.0,100.0
27.15,0.0,0.0,0.0,0.0,0.0,0.0,336.0,100.0
27.21,0.0,0.0,0.0,0.0,0.0,0.0,338.0,100.0
27.11,0.0,0.0,0.0,0.0,0.0,0.0,344.0,100.0
27.21,0.0,0.0,0.0,0.0,0.0,0.0,339.0,100.0
27.17,0.0,0.0,0.0,0.0,0.0,0.0,339.0,100.0
27.23,0.0,0.0,0.0,0.0,0.0,0.0,346.0,100.0
27.21,0.0,0.0,0.0,0.0,0.0,0.0,341.0,100.0
27.05,0.0,0.0,0.0,0.0,0.0,0.0,342.0,100.0
27.15,0.0,0.0,0.0,0.0,0.0,0.0,341.0,100.0
27.03,0.0,0.0,0.0,0.0,0.0,0.0,342.0,100.0
27.05,0.0,0.0,0.0,0.0,0.0,0.0,346.0,100.0
27.11,0.0,0.0,0.0,0.0,0.0,0.0,340.0,100.0
27.15,0.0,0.0,0.0,0.0,0.0,0.0,348.0,100.0
27.09,0.0,0.0,0.0,0.0,0.0,0.0,347.0,100.0
26.99,0.0,0.0,0.0,0.0,0.0,0.0,347.0,100.0
27.11,0.0,0.0,0.0,0.0,0.0,0.0,343.0,100.0
27.05,0.0,0.0,0.0,0.0,0.0,0.0,347.0,100.0
26.99,0.0,0.0,0.0,0.0,0.0,0.0,347.0,100.0
27.03,0.0,0.0,0.0,0.0,0.0,0.0,343.0,100.0
27.05,0.0,0.0,0.0,0.0,0.0,62.0,339.0,100.0
27.03,0.0,0.0,0.0,0.0,0.0,0.0,340.0,100.0
26.99,0.0,0.0,0.0,0.0,0.0,0.0,343.0,100.0
26.99,0.0,0.0,0.0,0.0,0.0,0.0,346.0,100.0
27.03,0.0,0.0,0.0,0.0,0.0,0.0,340.0,100.0
27.03,0.0,0.0,0.0,0.0,0.0,0.0,342.0,100.0
26.99,0.0,0.0,0.0,0.0,0.0,0.0,340.0,100.0
26.97,0.0,0.0,0.0,0.0,0.0,0.0,341.0,100.0
27.03,0.0,0.0,0.0,0.0,0.0,0.0,340.0,100.0
26.99,0.0,0.0,0.0,0.0,0.0,0.0,338.0,100.0
26.97,0.0,0.0,0.0,0.0,0.0,0.0,341.0,100.0
27.03,0.0,0.0,0.0,0.0,0.0,0.0,339.0,100.0
27.11,0.0,0.0,0.0,0.0,0.0,0.0,340.0,100.0
26.99,0.0,0.0,0.0,0.0,0.0,0.0,243.0,15.0
27.09,0.0,0.0,0.0,0.0,0.0,0.0,0.0,15.0
27.23,0.0,0.0,0.0,0.0,0.0,0.0,0.0,15.0
27.25,0.0,0.0,0.0,0.0,0.0,0.0,0.0,15.0
27.23,0.0,0.0,0.0,0.0,0.0,0.0,0.0,15.0
27.29,0.0,0.0,0.0,0.0,0.0,0.0,0.0,15.0
27.31,0.0,0.0,0.0,0.0,0.0,0.0,0.0,15.0
28.25,0.0,0.0,0.0,0.0,0.0,0.0,0.0,15.0
28.33,0.0,0.0,0.0,0.0,0.0,0.0,0.0,15.0
27.63,0.0,0.0,0.0,0.0,0.0,0.0,0.0,15.0
27.61,0.0,0.0,0.0,0.0,0.0,0.0,0.0,15.0
27.55,0.0,0.0,0.0,0.0,0.0,0.0,0.0,15.0
27.29,0.0,0.0,0.0,0.0,0.0,0.0,0.0,15.0
27.29,0.0,0.0,0.0,0.0,0.0,0.0,0.0,15.0
27.25,0.0,0.0,0.0,0.0,0.0,0.0,0.0,15.0
27.29,0.0,0.0,0.0,0.0,0.0,0.0,0.0,15.0
27.17,0.0,0.0,0.0,0.0,0.0,0.0,0.0,15.0
27.21,0.0,0.0,0.0,0.0,0.0,0.0,0.0,15.0
27.15,0.0,0.0,0.0,0.0,0.0,0.0,0.0,15.0
27.15,0.0,0.0,0.0,0.0,0.0,0.0,0.0,15.0
27.09,0.0,0.0,0.0,0.0,0.0,0.0,0.0,15.0
27.03,0.0,0.0,0.0,0.0,0.0,0.0,0.0,15.0
26.99,0.0,0.0,0.0,0.0,0.0,0.0,0.0,21.0
27.03,0.0,0.0,0.0,0.0,0.0,0.0,0.0,21.0
27.09,0.0,0.0,0.0,0.0,0.0,0.0,0.0,21.0
27.11,0.0,0.0,0.0,0.0,0.0,0.0,0.0,21.0
27.21,0.0,0.0,0.0,0.0,0.0,0.0,0.0,21.0
27.23,0.0,0.0,0.0,0.0,0.0,0.0,0.0,21.0
27.29,0.0,0.0,0.0,0.0,0.0,0.0,0.0,21.0
27.23,0.0,0.0,0.0,0.0,0.0,0.0,0.0,21.0
27.21,0.0,0.0,0.0,0.0,0.0,0.0,0.0,21.0
27.15,0.0,0.0,0.0,0.0,0.0,0.0,0.0,21.0
27.09,0.0,0.0,0.0,0.0,0.0,0.0,0.0,21.0
27.03,0.0,0.0,0.0,0.0,0.0,0.0,0.0,21.0
27.05,0.0,0.0,0.0,0.0,0.0,0.0,0.0,22.0
27.17,0.0,0.0,0.0,0.0,0.0,0.0,0.0,22.0
27.17,0.0,0.0,0.0,0.0,0.0,0.0,0.0,22.0
27.21,0.0,0.0,0.0,0.0,0.0,0.0,0.0,22.0
27.23,0.0,0.0,0.0,0.0,0.0,0.0,0.0,22.0
27.25,0.0,0.0,0.0,0.0,0.0,0.0,0.0,22.0
27.21,0.0,0.0,0.0,0.0,0.0,0.0,0.0,22.0
27.21,0.0,0.0,0.0,16.0,0.0,0.0,0.0,22.0
27.17,0.0,0.0,0.0,0.0,0.0,0.0,0.0,15.0
27.17,0.0,0.0,0.0,0.0,0.0,0.0,0.0,15.0
27.23,0.0,0.0,0.0,0.0,0.0,0.0,0.0,15.0
27.09,0.0,0.0,0.0,0.0,0.0,0.0,0.0,15.0
26.93,0.0,0.0,0.0,0.0,0.0,0.0,0.0,15.0
26.67,0.0,0.0,0.0,0.0,0.0,0.0,0.0,15.0
26.71,0.0,0.0,0.0,0.0,0.0,0.0,0.0,15.0
26.87,0.0,0.0,0.0,0.0,0.0,0.0,0.0,15.0
26.79,0.0,0.0,0.0,0.0,0.0,0.0,0.0,15.0
26.87,0.0,0.0,0.0,0.0,0.0,0.0,0.0,15.0
26.73,0.0,0.0,0.0,0.0,0.0,0.0,0.0,16.0
26.77,0.0,0.0,0.0,0.0,0.0,0.0,0.0,25.0
26.83,0.0,0.0,0.0,0.0,0.0,0.0,0.0,35.0
26.79,0.0,0.0,0.0,0.0,0.0,0.0,0.0,44.0
26.91,0.0,0.0,0.0,0.0,0.0,0.0,0.0,54.0
26.93,0.0,0.0,0.0,0.0,0.0,0.0,0.0,62.0
26.87,0.0,0.0,0.0,0.0,0.0,0.0,0.0,72.0
26.93,0.0,0.0,0.0,0.0,0.0,0.0,0.0,83.0
26.85,0.0,0.0,0.0,0.0,0.0,0.0,0.0,93.0
26.91,0.0,250.0,0.0,0.0,0.0,0.0,1001.0,100.0
26.93,0.0,283.0,0.0,0.0,0.0,0.0,1109.0,100.0
26.85,0.0,284.0,0.0,0.0,0.0,0.0,1170.0,100.0
26.93,0.0,286.0,0.0,0.0,0.0,0.0,1154.0,100.0
26.87,0.0,286.0,0.0,0.0,0.0,0.0,1161.0,100.0
26.93,0.0,303.0,0.0,0.0,0.0,0.0,1185.0,100.0
26.91,0.0,297.0,0.0,0.0,0.0,0.0,1197.0,100.0
26.93,0.0,256.0,0.0,0.0,0.0,0.0,1199.0,100.0
26.85,0.0,306.0,0.0,0.0,0.0,0.0,1214.0,100.0
26.85,0.0,299.0,0.0,0.0,0.0,0.0,1225.0,100.0
26.91,0.0,287.0,0.0,0.0,0.0,0.0,1227.0,100.0
26.85,0.0,299.0,0.0,0.0,0.0,0.0,1231.0,100.0
26.85,0.0,284.0,0.0,0.0,0.0,0.0,1243.0,100.0
26.91,0.0,211.0,0.0,0.0,0.0,0.0,1104.0,100.0
26.91,0.0,216.0,0.0,0.0,0.0,0.0,1129.0,100.0
26.87,0.0,223.0,0.0,0.0,0.0,0.0,1127.0,100.0
26.79,0.0,208.0,0.0,0.0,0.0,0.0,1129.0,100.0
26.79,0.0,219.0,0.0,0.0,0.0,0.0,1131.0,100.0
26.83,0.0,218.0,0.0,0.0,0.0,0.0,1128.0,100.0
26.83,0.0,270.0,0.0,0.0,0.0,0.0,1225.0,100.0
26.77,0.0,288.0,0.0,0.0,0.0,0.0,1259.0,100.0
26.83,0.0,310.0,0.0,0.0,0.0,0.0,1279.0,100.0
26.79,0.0,315.0,0.0,0.0,0.0,0.0,1287.0,100.0
26.87,0.0,319.0,0.0,0.0,0.0,0.0,1295.0,100.0
26.87,0.0,322.0,0.0,0.0,0.0,0.0,1309.0,100.0
26.87,0.0,358.0,0.0,0.0,0.0,0.0,1312.0,100.0
26.91,0.0,339.0,0.0,0.0,0.0,0.0,1304.0,100.0
26.85,0.0,363.0,0.0,0.0,0.0,0.0,1290.0,100.0
26.85,0.0,345.0,0.0,0.0,0.0,0.0,1299.0,100.0
26.85,0.0,356.0,0.0,0.0,0.0,0.0,1310.0,100.0
26.87,0.0,370.0,0.0,0.0,0.0,0.0,1314.0,100.0
26.87,0.0,358.0,0.0,0.0,0.0,0.0,1301.0,100.0
26.91,0.0,366.0,0.0,83.0,0.0,0.0,1293.0,100.0
26.79,0.0,368.0,0.0,0.0,0.0,0.0,1292.0,100.0
26.87,0.0,383.0,0.0,0.0,0.0,0.0,1282.0,100.0
26.83,0.0,377.0,0.0,0.0,0.0,0.0,1286.0,100.0
26.87,0.0,386.0,0.0,0.0,0.0,0.0,1315.0,100.0
26.85,0.0,383.0,0.0,0.0,0.0,0.0,1314.0,100.0
26.91,0.0,388.0,0.0,0.0,0.0,0.0,1318.0,100.0
26.91,0.0,386.0,0.0,0.0,0.0,0.0,1321.0,100.0
26.85,0.0,395.0,0.0,0.0,0.0,0.0,1322.0,100.0
26.87,0.0,314.0,0.0,0.0,0.0,0.0,1325.0,100.0
26.83,0.0,397.0,0.0,0.0,0.0,0.0,1327.0,100.0
26.87,0.0,399.0,0.0,0.0,0.0,0.0,1329.0,100.0
26.85,0.0,387.0,0.0,0.0,0.0,0.0,1327.0,100.0
26.91,0.0,393.0,0.0,0.0,0.0,0.0,1338.0,100.0
26.87,0.0,330.0,0.0,0.0,0.0,0.0,1336.0,100.0
26.85,0.0,428.0,0.0,0.0,0.0,0.0,1334.0,100.0
26.87,0.0,400.0,0.0,0.0,10.0,0.0,1334.0,100.0
26.87,0.0,365.0,0.0,0.0,0.0,0.0,1343.0,100.0
26.85,0.0,403.0,0.0,0.0,0.0,0.0,1342.0,100.0
26.85,0.0,403.0,0.0,0.0,0.0,0.0,1339.0,100.0
26.83,0.0,880.0,0.0,0.0,0.0,0.0,1340.0,100.0
26.91,0.0,400.0,0.0,0.0,0.0,0.0,1342.0,100.0
26.85,0.0,384.0,0.0,0.0,0.0,0.0,1344.0,100.0
26.85,0.0,400.0,0.0,0.0,0.0,0.0,1342.0,100.0
26.85,0.0,352.0,0.0,0.0,0.0,0.0,1341.0,100.0
26.83,0.0,403.0,0.0,0.0,0.0,0.0,1333.0,100.0
26.87,0.0,405.0,0.0,0.0,0.0,0.0,1341.0,100.0
26.85,0.0,384.0,0.0,0.0,0.0,0.0,1341.0,100.0
26.87,0.0,400.0,0.0,0.0,0.0,0.0,1336.0,100.0
26.91,0.0,400.0,0.0,0.0,0.0,0.0,1343.0,100.0
26.85,0.0,400.0,0.0,0.0,0.0,0.0,1347.0,100.0
26.91,0.0,415.0,0.0,0.0,0.0,0.0,1347.0,100.0
26.87,0.0,395.0,0.0,0.0,0.0,0.0,1355.0,100.0
26.87,0.0,384.0,0.0,0.0,0.0,0.0,1346.0,100.0
26.91,0.0,396.0,0.0,0.0,0.0,0.0,1363.0,100.0
26.85,0.0,379.0,0.0,0.0,0.0,0.0,1369.0,100.0
26.87,0.0,374.0,0.0,0.0,0.0,0.0,1383.0,100.0
26.91,0.0,409.0,0.0,0.0,0.0,0.0,1397.0,100.0
26.91,0.0,362.0,0.0,0.0,0.0,0.0,1407.0,100.0
26.83,0.0,363.0,0.0,0.0,0.0,0.0,1432.0,100.0
26.77,0.0,359.0,0.0,0.0,0.0,0.0,1435.0,100.0
26.87,0.0,352.0,0.0,0.0,0.0,0.0,1432.0,100.0
26.79,0.0,359.0,0.0,0.0,0.0,0.0,1440.0,100.0
26.83,0.0,359.0,0.0,0.0,0.0,0.0,1438.0,100.0
26.85,0.0,364.0,0.0,0.0,0.0,0.0,1434.0,100.0
26.83,0.0,362.0,0.0,0.0,0.0,0.0,1425.0,100.0
26.77,0.0,364.0,0.0,0.0,0.0,0.0,1434.0,100.0
26.87,0.0,353.0,0.0,0.0,0.0,0.0,1448.0,100.0
26.79,0.0,340.0,0.0,0.0,0.0,0.0,1444.0,100.0
26.79,0.0,352.0,0.0,0.0,0.0,0.0,1442.0,100.0
26.85,0.0,358.0,0.0,0.0,0.0,0.0,1446.0,100.0
26.87,0.0,15.0,0.0,0.0,0.0,0.0,1446.0,15.0
26.91,0.0,0.0,0.0,0.0,0.0,0.0,4.0,15.0
27.05,0.0,0.0,0.0,0.0,0.0,0.0,0.0,15.0
27.11,0.0,0.0,0.0,0.0,0.0,0.0,0.0,15.0
27.09,0.0,0.0,0.0,0.0,0.0,0.0,0.0,15.0
27.09,0.0,0.0,0.0,0.0,0.0,0.0,0.0,15.0
27.03,0.0,0.0,0.0,0.0,0.0,0.0,0.0,15.0
27.03,0.0,0.0,0.0,0.0,0.0,0.0,0.0,15.0
27.25,0.0,0.0,0.0,0.0,0.0,0.0,0.0,15.0
27.61,0.0,0.0,0.0,0.0,0.0,0.0,0.0,15.0
27.63,0.0,0.0,0.0,0.0,0.0,0.0,0.0,15.0
27.17,0.0,0.0,0.0,0.0,0.0,0.0,0.0,15.0
27.11,0.0,0.0,0.0,0.0,0.0,0.0,0.0,17.0
27.03,0.0,0.0,0.0,0.0,0.0,0.0,0.0,17.0
27.15,0.0,0.0,0.0,0.0,0.0,0.0,0.0,17.0
27.03,0.0,0.0,0.0,0.0,0.0,0.0,0.0,17.0
27.11,0.0,0.0,0.0,0.0,0.0,0.0,0.0,17.0
27.21,0.0,0.0,0.0,0.0,0.0,0.0,0.0,17.0
27.15,0.0,0.0,0.0,0.0,0.0,0.0,0.0,17.0
27.11,0.0,0.0,0.0,0.0,0.0,0.0,0.0,17.0
27.11,0.0,0.0,0.0,0.0,0.0,0.0,0.0,17.0
27.21,0.0,0.0,0.0,0.0,0.0,0.0,0.0,17.0
27.21,0.0,0.0,0.0,0.0,0.0,0.0,0.0,17.0
27.11,0.0,0.0,0.0,0.0,0.0,0.0,0.0,17.0
27.05,0.0,0.0,0.0,0.0,0.0,0.0,0.0,17.0
27.11,0.0,0.0,0.0,0.0,0.0,0.0,0.0,17.0
27.03,0.0,0.0,0.0,0.0,0.0,0.0,0.0,17.0
27.17,0.0,0.0,0.0,0.0,0.0,0.0,0.0,17.0
27.59,0.0,0.0,0.0,0.0,0.0,0.0,0.0,17.0
27.73,0.0,0.0,0.0,0.0,0.0,0.0,0.0,17.0
27.99,0.0,0.0,0.0,0.0,0.0,0.0,0.0,17.0
27.93,0.0,0.0,0.0,0.0,0.0,0.0,0.0,17.0
27.93,0.0,0.0,0.0,0.0,0.0,0.0,0.0,17.0
27.91,0.0,0.0,0.0,0.0,0.0,0.0,0.0,17.0
27.95,0.0,0.0,0.0,0.0,0.0,0.0,0.0,17.0
27.95,0.0,0.0,0.0,0.0,0.0,0.0,0.0,17.0
27.99,0.0,0.0,0.0,0.0,0.0,0.0,0.0,17.0
28.07,0.0,0.0,0.0,0.0,0.0,0.0,0.0,17.0
28.05,0.0,0.0,8.0,0.0,0.0,0.0,0.0,17.0
28.07,0.0,0.0,0.0,0.0,0.0,0.0,0.0,17.0
28.13,0.0,0.0,0.0,0.0,0.0,0.0,0.0,17.0
28.17,0.0,0.0,0.0,0.0,0.0,0.0,0.0,15.0
27.81,0.0,0.0,0.0,0.0,0.0,0.0,0.0,15.0
27.75,0.0,0.0,0.0,0.0,0.0,0.0,0.0,15.0
27.93,0.0,0.0,0.0,0.0,0.0,0.0,0.0,15.0
28.05,0.0,0.0,0.0,0.0,0.0,0.0,0.0,15.0
28.47,0.0,0.0,0.0,0.0,0.0,0.0,0.0,15.0
31.29,0.0,0.0,0.0,0.0,0.0,0.0,0.0,15.0
38.21,0.0,0.0,0.0,0.0,0.0,0.0,0.0,15.0
49.15,0.0,0.0,0.0,0.0,0.0,0.0,0.0,15.0
51.09,0.0,0.0,0.0,0.0,0.0,0.0,0.0,15.0
51.53,0.0,0.0,0.0,0.0,0.0,0.0,0.0,15.0
52.09,0.0,0.0,0.0,0.0,0.0,0.0,0.0,18.0
52.45,0.0,0.0,0.0,0.0,0.0,0.0,0.0,28.0
52.41,0.0,0.0,0.0,0.0,0.0,0.0,0.0,38.0
52.21,0.0,0.0,0.0,0.0,0.0,0.0,0.0,47.0
52.29,0.0,0.0,0.0,0.0,0.0,0.0,0.0,57.0
52.25,0.0,0.0,0.0,0.0,0.0,0.0,202.0,68.0
51.99,0.0,0.0,0.0,0.0,781.0,0.0,2242.0,80.0
51.83,0.0,0.0,0.0,0.0,850.0,0.0,2626.0,89.0
51.85,0.0,0.0,0.0,0.0,864.0,0.0,2675.0,100.0
51.81,0.0,0.0,0.0,0.0,807.0,0.0,2687.0,100.0
51.83,0.0,0.0,0.0,0.0,803.0,0.0,2697.0,100.0
51.83,0.0,0.0,0.0,0.0,789.0,0.0,2722.0,100.0
51.81,0.0,0.0,0.0,0.0,808.0,0.0,2724.0,100.0
51.83,0.0,0.0,0.0,0.0,819.0,0.0,2722.0,100.0
51.81,0.0,0.0,0.0,0.0,816.0,0.0,2724.0,100.0
51.81,0.0,0.0,0.0,0.0,826.0,0.0,2702.0,100.0
51.81,0.0,0.0,0.0,0.0,825.0,0.0,2690.0,100.0
51.85,0.0,0.0,0.0,0.0,707.0,0.0,2596.0,100.0
51.83,0.0,0.0,0.0,0.0,690.0,0.0,2655.0,100.0
51.91,0.0,0.0,0.0,0.0,667.0,0.0,2686.0,100.0
51.85,0.0,0.0,0.0,0.0,687.0,0.0,2709.0,100.0
51.91,0.0,0.0,0.0,0.0,634.0,0.0,2780.0,100.0
51.89,0.0,0.0,0.0,0.0,626.0,0.0,2816.0,100.0
51.91,0.0,0.0,0.0,0.0,592.0,0.0,2773.0,100.0
51.91,0.0,0.0,0.0,0.0,610.0,0.0,2786.0,100.0
51.89,0.0,0.0,0.0,0.0,593.0,0.0,2803.0,100.0
52.03,0.0,0.0,0.0,0.0,613.0,0.0,2804.0,100.0
52.07,0.0,0.0,0.0,0.0,614.0,0.0,2811.0,100.0
52.05,0.0,0.0,0.0,0.0,613.0,0.0,2815.0,100.0
51.99,0.0,0.0,0.0,0.0,613.0,0.0,2820.0,100.0
51.95,0.0,0.0,0.0,0.0,611.0,0.0,2813.0,100.0
51.95,0.0,0.0,0.0,0.0,602.0,0.0,2773.0,100.0
51.93,0.0,0.0,0.0,0.0,592.0,0.0,2786.0,100.0
51.93,0.0,0.0,0.0,0.0,626.0,0.0,2799.0,100.0
51.89,0.0,0.0,0.0,0.0,620.0,0.0,2816.0,100.0
51.91,0.0,0.0,0.0,0.0,614.0,0.0,2777.0,100.0
51.95,0.0,0.0,0.0,0.0,631.0,0.0,2696.0,100.0
51.93,0.0,0.0,0.0,0.0,650.0,0.0,2598.0,100.0
51.95,0.0,0.0,0.0,0.0,658.0,0.0,2533.0,100.0
52.07,0.0,0.0,0.0,0.0,759.0,0.0,2489.0,100.0
52.03,0.0,0.0,0.0,0.0,806.0,0.0,2360.0,100.0
52.03,0.0,0.0,0.0,0.0,867.0,0.0,2355.0,100.0
51.95,0.0,0.0,0.0,0.0,959.0,0.0,2367.0,100.0
51.93,0.0,0.0,0.0,0.0,1023.0,0.0,2383.0,100.0
51.97,0.0,0.0,0.0,0.0,1063.0,0.0,2402.0,100.0
52.03,0.0,0.0,0.0,0.0,1116.0,0.0,2413.0,100.0
52.05,0.0,0.0,0.0,0.0,1077.0,0.0,2404.0,100.0
52.05,0.0,0.0,0.0,0.0,1077.0,0.0,2425.0,100.0
51.97,0.0,0.0,0.0,0.0,1035.0,0.0,2423.0,100.0
51.95,0.0,0.0,0.0,0.0,789.0,0.0,2429.0,100.0
51.93,0.0,0.0,0.0,0.0,912.0,0.0,2453.0,100.0
51.99,0.0,0.0,0.0,0.0,927.0,0.0,2463.0,100.0
52.05,0.0,0.0,0.0,0.0,749.0,0.0,2568.0,100.0
52.03,0.0,0.0,0.0,0.0,721.0,0.0,2622.0,100.0
51.99,0.0,0.0,0.0,0.0,676.0,0.0,2681.0,100.0
52.03,0.0,0.0,0.0,0.0,656.0,0.0,2708.0,100.0
52.05,0.0,0.0,0.0,0.0,613.0,0.0,2783.0,100.0
52.07,0.0,0.0,0.0,0.0,502.0,0.0,2807.0,100.0
52.03,0.0,0.0,0.0,0.0,615.0,0.0,2754.0,100.0
51.95,0.0,0.0,0.0,0.0,586.0,0.0,2777.0,100.0
51.97,0.0,0.0,0.0,0.0,594.0,0.0,2773.0,100.0
51.93,0.0,0.0,0.0,0.0,601.0,0.0,2769.0,100.0
51.95,0.0,0.0,0.0,0.0,592.0,0.0,2785.0,100.0
51.95,0.0,0.0,0.0,0.0,566.0,0.0,2711.0,100.0
52.03,0.0,0.0,0.0,0.0,577.0,0.0,2673.0,100.0
52.05,0.0,0.0,0.0,0.0,667.0,0.0,2592.0,100.0
51.99,0.0,0.0,0.0,0.0,681.0,0.0,2589.0,100.0
52.13,0.0,0.0,0.0,0.0,776.0,0.0,2429.0,100.0
52.21,0.0,0.0,0.0,0.0,846.0,0.0,2390.0,100.0
52.13,0.0,0.0,0.0,0.0,912.0,0.0,2397.0,100.0
52.21,0.0,0.0,0.0,0.0,1003.0,0.0,2396.0,100.0
52.19,0.0,0.0,0.0,0.0,1072.0,0.0,2385.0,100.0
52.23,0.0,0.0,0.0,0.0,1091.0,0.0,2463.0,100.0
52.35,0.0,0.0,0.0,0.0,1104.0,0.0,2460.0,100.0
52.33,0.0,0.0,0.0,0.0,1095.0,0.0,2473.0,100.0
52.33,0.0,0.0,0.0,0.0,1099.0,0.0,2468.0,100.0
52.23,0.0,0.0,0.0,0.0,1083.0,0.0,2482.0,100.0
52.25,0.0,0.0,0.0,0.0,1106.0,0.0,2478.0,100.0
52.19,0.0,0.0,0.0,0.0,1104.0,0.0,2494.0,100.0
52.19,0.0,0.0,0.0,0.0,1104.0,0.0,2494.0,100.0
52.13,0.0,0.0,0.0,0.0,1090.0,0.0,2485.0,100.0
52.05,0.0,0.0,0.0,0.0,1047.0,0.0,2465.0,100.0
52.11,0.0,0.0,0.0,0.0,1040.0,0.0,2495.0,100.0
52.07,0.0,0.0,0.0,0.0,1038.0,0.0,2492.0,100.0
52.13,0.0,0.0,0.0,0.0,1038.0,0.0,2492.0,100.0
52.07,0.0,0.0,0.0,0.0,1040.0,0.0,2500.0,100.0
52.21,0.0,0.0,0.0,0.0,1037.0,0.0,2497.0,100.0
52.21,0.0,0.0,0.0,0.0,1042.0,0.0,2508.0,100.0
52.13,0.0,0.0,0.0,0.0,1023.0,0.0,2502.0,100.0
52.15,0.0,0.0,0.0,0.0,1036.0,0.0,2506.0,100.0
52.13,0.0,0.0,0.0,0.0,1037.0,0.0,2507.0,100.0
52.15,0.0,0.0,0.0,0.0,1041.0,0.0,2511.0,100.0
52.15,0.0,0.0,0.0,0.0,1041.0,0.0,2516.0,100.0
52.13,0.0,0.0,0.0,0.0,1040.0,0.0,2516.0,15.0
52.13,0.0,0.0,0.0,0.0,0.0,0.0,13.0,15.0
27.91,0.0,0.0,0.0,0.0,0.0,0.0,0.0,15.0
27.85,0.0,0.0,0.0,0.0,0.0,0.0,0.0,15.0
27.69,0.0,0.0,0.0,0.0,0.0,0.0,0.0,15.0
27.95,0.0,0.0,0.0,0.0,0.0,0.0,0.0,15.0
28.77,0.0,0.0,0.0,0.0,0.0,0.0,0.0,15.0
28.77,0.0,0.0,0.0,208.0,0.0,0.0,0.0,15.0
29.05,0.0,0.0,0.0,0.0,0.0,0.0,0.0,15.0
28.57,0.0,0.0,0.0,0.0,0.0,0.0,0.0,15.0
27.55,0.0,0.0,0.0,0.0,0.0,0.0,0.0,15.0
27.61,0.0,0.0,0.0,0.0,0.0,0.0,0.0,15.0
27.55,0.0,0.0,0.0,0.0,0.0,0.0,0.0,15.0
27.61,0.0,0.0,0.0,0.0,0.0,0.0,0.0,15.0
27.69,0.0,0.0,0.0,0.0,0.0,0.0,0.0,15.0
27.61,0.0,0.0,0.0,0.0,0.0,0.0,0.0,15.0
27.55,0.0,0.0,0.0,0.0,0.0,0.0,0.0,15.0
27.55,0.0,0.0,0.0,0.0,0.0,0.0,0.0,15.0
27.59,0.0,0.0,0.0,0.0,0.0,0.0,0.0,15.0
27.55,0.0,0.0,0.0,0.0,0.0,0.0,0.0,15.0
27.55,0.0,0.0,0.0,0.0,0.0,0.0,0.0,15.0
27.55,0.0,0.0,0.0,0.0,0.0,0.0,0.0,15.0
27.55,0.0,0.0,0.0,0.0,0.0,0.0,0.0,15.0
27.63,0.0,0.0,0.0,0.0,0.0,0.0,0.0,15.0
27.67,0.0,0.0,0.0,0.0,0.0,0.0,0.0,15.0
27.75,0.0,0.0,0.0,0.0,0.0,0.0,0.0,15.0
27.69,0.0,0.0,0.0,0.0,0.0,0.0,0.0,15.0
27.79,0.0,0.0,0.0,0.0,0.0,0.0,0.0,15.0
27.79,0.0,0.0,0.0,0.0,0.0,0.0,0.0,15.0
27.81,0.0,0.0,0.0,0.0,0.0,0.0,0.0,15.0
27.79,0.0,0.0,0.0,0.0,0.0,0.0,0.0,15.0
27.69,0.0,0.0,0.0,0.0,0.0,0.0,0.0,15.0
27.79,0.0,0.0,0.0,0.0,0.0,0.0,0.0,15.0
27.67,0.0,0.0,0.0,0.0,0.0,0.0,0.0,15.0
27.69,0.0,0.0,0.0,0.0,0.0,0.0,0.0,15.0
27.67,0.0,0.0,0.0,0.0,0.0,0.0,0.0,15.0
27.67,0.0,0.0,0.0,0.0,0.0,0.0,0.0,15.0
27.75,0.0,0.0,0.0,0.0,0.0,0.0,0.0,15.0
27.81,0.0,0.0,0.0,0.0,0.0,0.0,1.0,15.0
27.85,0.0,0.0,0.0,0.0,0.0,0.0,0.0,15.0
27.75,0.0,0.0,0.0,0.0,0.0,0.0,0.0,15.0
27.79,0.0,0.0,0.0,0.0,0.0,0.0,0.0,15.0
27.81,0.0,0.0,0.0,0.0,0.0,0.0,0.0,15.0
27.81,0.0,0.0,0.0,0.0,0.0,0.0,0.0,15.0
27.81,0.0,0.0,0.0,0.0,0.0,0.0,0.0,15.0
27.81,0.0,0.0,0.0,0.0,0.0,0.0,0.0,15.0
27.85,0.0,0.0,0.0,0.0,0.0,0.0,0.0,15.0
27.85,0.0,0.0,0.0,0.0,0.0,0.0,0.0,15.0
27.79,0.0,0.0,0.0,0.0,0.0,0.0,0.0,15.0
27.69,0.0,0.0,0.0,0.0,0.0,0.0,0.0,15.0
27.59,0.0,0.0,0.0,0.0,0.0,0.0,0.0,15.0
27.53,0.0,0.0,0.0,0.0,0.0,0.0,0.0,15.0
27.59,0.0,0.0,0.0,0.0,0.0,0.0,0.0,15.0
27.47,0.0,0.0,0.0,0.0,0.0,0.0,0.0,15.0
27.37,0.0,0.0,0.0,0.0,0.0,0.0,0.0,15.0
27.35,0.0,0.0,0.0,0.0,0.0,0.0,0.0,15.0
27.37,0.0,0.0,0.0,0.0,0.0,0.0,0.0,15.0
27.35,0.0,0.0,0.0,0.0,0.0,0.0,0.0,19.0
27.47,0.0,0.0,0.0,0.0,0.0,0.0,0.0,25.0
27.49,0.0,0.0,0.0,0.0,0.0,0.0,0.0,25.0
27.53,0.0,0.0,0.0,0.0,0.0,0.0,0.0,34.0
27.59,0.0,0.0,0.0,0.0,0.0,0.0,0.0,44.0
27.69,0.0,0.0,0.0,0.0,0.0,0.0,0.0,53.0
27.81,0.0,0.0,0.0,0.0,0.0,0.0,0.0,62.0
27.63,0.0,0.0,0.0,0.0,0.0,0.0,0.0,71.0
27.53,0.0,0.0,0.0,0.0,0.0,0.0,0.0,83.0
27.35,0.0,0.0,0.0,0.0,0.0,0.0,0.0,93.0
27.35,0.0,0.0,0.0,0.0,0.0,776.0,513.0,100.0
27.35,0.0,0.0,0.0,0.0,0.0,848.0,637.0,100.0
27.35,0.0,0.0,0.0,0.0,0.0,880.0,658.0,100.0
27.35,0.0,0.0,0.0,0.0,0.0,902.0,675.0,100.0
27.35,0.0,0.0,0.0,0.0,0.0,907.0,689.0,100.0
27.35,0.0,0.0,0.0,0.0,0.0,912.0,701.0,100.0
27.35,0.0,0.0,0.0,0.0,0.0,914.0,711.0,100.0
27.31,0.0,0.0,0.0,0.0,0.0,930.0,709.0,100.0
27.29,0.0,0.0,0.0,0.0,0.0,928.0,707.0,100.0
27.31,0.0,0.0,0.0,0.0,0.0,955.0,671.0,100.0
27.29,0.0,0.0,0.0,0.0,0.0,921.0,669.0,100.0
27.41,0.0,0.0,0.0,0.0,0.0,924.0,665.0,100.0
27.37,0.0,0.0,0.0,0.0,0.0,916.0,667.0,100.0
27.35,0.0,0.0,0.0,0.0,0.0,920.0,666.0,100.0
27.35,0.0,0.0,0.0,0.0,0.0,930.0,668.0,100.0
27.31,0.0,0.0,0.0,0.0,0.0,885.0,672.0,100.0
27.35,0.0,0.0,0.0,0.0,0.0,931.0,659.0,100.0
27.35,0.0,0.0,0.0,0.0,0.0,925.0,665.0,100.0
27.29,0.0,0.0,0.0,0.0,0.0,934.0,667.0,100.0
27.35,0.0,0.0,0.0,0.0,0.0,938.0,662.0,100.0
27.31,0.0,0.0,0.0,0.0,0.0,934.0,661.0,100.0
27.31,0.0,0.0,0.0,0.0,0.0,928.0,657.0,100.0
27.23,0.0,0.0,0.0,0.0,0.0,944.0,656.0,100.0
27.29,0.0,0.0,0.0,0.0,0.0,947.0,646.0,100.0
27.25,0.0,0.0,0.0,0.0,0.0,938.0,647.0,100.0
27.23,0.0,0.0,0.0,0.0,0.0,953.0,641.0,100.0
27.23,0.0,0.0,0.0,0.0,0.0,943.0,652.0,100.0
27.31,0.0,0.0,0.0,0.0,0.0,944.0,648.0,100.0
27.31,0.0,0.0,0.0,0.0,0.0,949.0,647.0,100.0
27.31,0.0,0.0,0.0,0.0,0.0,957.0,649.0,100.0
27.29,0.0,0.0,0.0,0.0,0.0,958.0,647.0,100.0
27.29,0.0,0.0,0.0,0.0,0.0,962.0,647.0,100.0
27.29,0.0,0.0,0.0,0.0,0.0,958.0,644.0,100.0
27.29,0.0,0.0,0.0,0.0,0.0,971.0,647.0,100.0
27.31,0.0,0.0,0.0,0.0,0.0,975.0,638.0,100.0
27.29,0.0,0.0,0.0,0.0,0.0,976.0,643.0,100.0
27.29,0.0,0.0,0.0,0.0,0.0,976.0,639.0,100.0
27.23,0.0,0.0,0.0,0.0,0.0,976.0,643.0,100.0
27.25,0.0,0.0,0.0,0.0,0.0,974.0,643.0,100.0
27.25,0.0,0.0,0.0,0.0,0.0,976.0,643.0,100.0
27.23,0.0,0.0,0.0,0.0,0.0,978.0,642.0,100.0
27.23,0.0,0.0,0.0,0.0,0.0,975.0,647.0,100.0
27.21,0.0,0.0,0.0,0.0,0.0,976.0,646.0,100.0
27.25,0.0,0.0,0.0,0.0,0.0,976.0,643.0,100.0
27.21,0.0,0.0,0.0,0.0,0.0,976.0,639.0,100.0
27.25,0.0,0.0,0.0,0.0,0.0,973.0,642.0,100.0
27.17,0.0,0.0,0.0,0.0,0.0,981.0,645.0,100.0
27.17,0.0,0.0,0.0,0.0,0.0,977.0,645.0,100.0
27.17,0.0,0.0,0.0,0.0,0.0,976.0,638.0,100.0
27.21,0.0,0.0,0.0,0.0,0.0,977.0,637.0,100.0
27.23,0.0,0.0,0.0,0.0,0.0,974.0,639.0,100.0
27.21,0.0,0.0,0.0,0.0,0.0,979.0,646.0,100.0
27.23,0.0,0.0,0.0,0.0,0.0,979.0,651.0,100.0
27.17,0.0,0.0,0.0,0.0,0.0,973.0,651.0,100.0
27.17,0.0,0.0,0.0,0.0,0.0,975.0,647.0,100.0
27.25,0.0,0.0,0.0,0.0,0.0,976.0,648.0,100.0
27.29,0.0,0.0,0.0,0.0,0.0,976.0,648.0,100.0
27.23,0.0,0.0,0.0,0.0,0.0,972.0,653.0,100.0
27.23,0.0,0.0,0.0,0.0,0.0,976.0,651.0,100.0
27.23,0.0,0.0,0.0,0.0,0.0,978.0,646.0,100.0
27.23,0.0,0.0,0.0,0.0,0.0,1041.0,651.0,100.0
27.25,0.0,0.0,0.0,0.0,0.0,963.0,647.0,100.0
27.23,0.0,0.0,0.0,0.0,0.0,973.0,655.0,100.0
27.21,0.0,0.0,0.0,0.0,0.0,960.0,649.0,100.0
27.29,0.0,0.0,0.0,0.0,0.0,966.0,652.0,100.0
27.25,0.0,0.0,0.0,0.0,0.0,975.0,651.0,100.0
27.25,0.0,0.0,0.0,0.0,0.0,970.0,646.0,100.0
27.25,0.0,0.0,0.0,0.0,0.0,967.0,640.0,100.0
27.25,0.0,0.0,0.0,0.0,0.0,959.0,650.0,100.0
27.25,0.0,0.0,0.0,0.0,0.0,961.0,637.0,100.0
27.25,0.0,0.0,0.0,0.0,0.0,912.0,647.0,100.0
27.31,0.0,0.0,0.0,0.0,0.0,967.0,638.0,100.0
27.37,48.0,0.0,0.0,0.0,0.0,967.0,654.0,100.0
27.31,0.0,0.0,0.0,0.0,0.0,965.0,653.0,100.0
27.37,0.0,0.0,0.0,0.0,0.0,971.0,657.0,100.0
27.37,0.0,0.0,0.0,0.0,0.0,962.0,652.0,100.0
27.35,0.0,0.0,0.0,0.0,0.0,907.0,654.0,100.0
27.35,0.0,0.0,0.0,0.0,0.0,962.0,645.0,100.0
27.29,0.0,0.0,0.0,0.0,0.0,0.0,6.0,15.0
27.31,0.0,0.0,0.0,0.0,0.0,0.0,0.0,15.0
27.25,0.0,0.0,0.0,0.0,0.0,0.0,0.0,15.0
27.35,0.0,0.0,0.0,0.0,0.0,0.0,0.0,15.0
27.31,0.0,0.0,0.0,0.0,0.0,0.0,0.0,15.0
27.49,0.0,0.0,0.0,0.0,0.0,0.0,0.0,15.0
28.39,0.0,0.0,0.0,0.0,0.0,0.0,0.0,15.0
28.45,0.0,0.0,0.0,0.0,0.0,0.0,0.0,15.0
28.51,0.0,0.0,0.0,0.0,0.0,0.0,0.0,15.0
28.39,0.0,0.0,0.0,0.0,0.0,0.0,0.0,15.0
27.79,0.0,0.0,0.0,0.0,0.0,0.0,0.0,15.0
27.69,0.0,0.0,0.0,0.0,0.0,0.0,0.0,15.0
27.67,0.0,0.0,0.0,0.0,0.0,0.0,0.0,15.0
27.75,0.0,0.0,0.0,0.0,0.0,0.0,0.0,15.0
27.87,0.0,0.0,0.0,0.0,0.0,0.0,0.0,15.0
27.79,0.0,0.0,0.0,0.0,0.0,0.0,0.0,15.0
27.75,0.0,0.0,0.0,0.0,0.0,0.0,0.0,15.0
27.63,0.0,0.0,0.0,0.0,0.0,0.0,0.0,15.0
27.73,0.0,0.0,0.0,0.0,0.0,0.0,0.0,15.0
27.79,0.0,0.0,0.0,0.0,0.0,0.0,0.0,15.0
27.81,0.0,0.0,0.0,0.0,0.0,0.0,0.0,15.0
27.75,0.0,0.0,0.0,0.0,0.0,0.0,0.0,15.0
27.81,0.0,0.0,0.0,0.0,0.0,0.0,0.0,15.0
27.85,0.0,0.0,0.0,0.0,0.0,0.0,0.0,15.0
27.85,0.0,0.0,0.0,0.0,0.0,0.0,0.0,15.0
27.93,0.0,0.0,0.0,0.0,0.0,0.0,0.0,15.0
27.87,0.0,0.0,0.0,0.0,0.0,0.0,0.0,15.0
27.95,0.0,0.0,0.0,0.0,0.0,0.0,0.0,15.0
27.87,0.0,0.0,0.0,0.0,0.0,0.0,0.0,15.0
27.93,0.0,0.0,0.0,0.0,0.0,0.0,0.0,15.0
27.87,0.0,0.0,0.0,0.0,0.0,0.0,0.0,15.0
27.85,0.0,0.0,0.0,0.0,0.0,0.0,0.0,15.0
27.85,0.0,0.0,0.0,0.0,0.0,0.0,0.0,15.0
27.87,0.0,0.0,0.0,0.0,0.0,0.0,0.0,15.0
27.85,0.0,0.0,0.0,0.0,0.0,0.0,0.0,15.0
27.91,0.0,0.0,0.0,0.0,0.0,0.0,0.0,15.0
27.81,0.0,0.0,0.0,0.0,0.0,0.0,0.0,15.0
27.79,0.0,0.0,0.0,0.0,0.0,0.0,0.0,15.0
27.81,0.0,0.0,0.0,0.0,0.0,0.0,0.0,15.0
27.81,0.0,0.0,0.0,0.0,0.0,0.0,0.0,15.0
27.85,0.0,0.0,0.0,0.0,0.0,0.0,0.0,15.0
27.79,0.0,0.0,0.0,0.0,0.0,0.0,0.0,15.0
27.41,0.0,0.0,0.0,0.0,0.0,0.0,0.0,15.0
27.37,0.0,0.0,0.0,0.0,0.0,0.0,0.0,15.0
27.43,0.0,0.0,0.0,0.0,0.0,0.0,0.0,15.0
27.43,0.0,0.0,0.0,0.0,0.0,0.0,0.0,15.0
27.49,0.0,0.0,0.0,0.0,0.0,0.0,0.0,15.0
27.53,0.0,0.0,0.0,0.0,0.0,0.0,0.0,15.0
27.55,0.0,0.0,0.0,0.0,0.0,0.0,0.0,21.0
27.63,0.0,0.0,0.0,0.0,0.0,0.0,0.0,21.0
27.93,0.0,0.0,0.0,0.0,0.0,0.0,0.0,21.0
27.91,0.0,0.0,0.0,0.0,0.0,0.0,0.0,21.0
27.95,112.0,0.0,0.0,0.0,0.0,0.0,0.0,21.0
27.81,0.0,0.0,0.0,0.0,0.0,0.0,0.0,28.0
27.87,0.0,0.0,0.0,0.0,0.0,0.0,0.0,38.0
27.91,0.0,0.0,0.0,0.0,0.0,0.0,0.0,48.0
27.91,0.0,0.0,0.0,0.0,0.0,0.0,0.0,58.0
27.85,0.0,0.0,0.0,0.0,0.0,0.0,0.0,67.0
27.87,0.0,0.0,0.0,0.0,0.0,0.0,267.0,76.0
27.85,0.0,128.0,0.0,0.0,195.0,0.0,1925.0,86.0
27.85,0.0,272.0,0.0,0.0,208.0,0.0,2055.0,96.0
27.81,0.0,283.0,0.0,0.0,151.0,0.0,2038.0,100.0
27.85,0.0,365.0,0.0,0.0,0.0,0.0,2152.0,100.0
27.91,0.0,432.0,0.0,0.0,0.0,0.0,2135.0,100.0
27.85,0.0,0.0,0.0,0.0,48.0,0.0,1538.0,100.0
27.87,0.0,0.0,0.0,0.0,112.0,0.0,1440.0,100.0
27.87,0.0,0.0,0.0,0.0,101.0,0.0,1291.0,100.0
27.91,0.0,0.0,0.0,0.0,80.0,0.0,1309.0,100.0
27.85,0.0,0.0,0.0,0.0,78.0,0.0,1290.0,100.0
27.87,0.0,0.0,0.0,0.0,0.0,0.0,1266.0,100.0
27.91,0.0,0.0,0.0,0.0,69.0,0.0,1254.0,100.0
27.85,0.0,0.0,0.0,0.0,0.0,0.0,1276.0,100.0
27.85,0.0,0.0,0.0,0.0,10.0,0.0,1187.0,100.0
27.75,0.0,0.0,0.0,0.0,312.0,0.0,1195.0,100.0
27.79,0.0,0.0,0.0,0.0,17.0,0.0,1205.0,100.0
27.85,0.0,0.0,0.0,0.0,0.0,0.0,1204.0,100.0
27.73,0.0,0.0,0.0,0.0,9.0,0.0,1207.0,100.0
27.75,0.0,0.0,0.0,0.0,0.0,0.0,1206.0,100.0
27.73,0.0,0.0,0.0,0.0,0.0,0.0,1224.0,100.0
27.75,0.0,0.0,0.0,0.0,0.0,0.0,1229.0,100.0
27.73,0.0,0.0,0.0,0.0,0.0,0.0,1245.0,100.0
27.73,0.0,0.0,0.0,0.0,0.0,0.0,1252.0,100.0
27.73,0.0,0.0,0.0,0.0,0.0,0.0,1261.0,100.0
27.67,0.0,0.0,0.0,0.0,0.0,0.0,1264.0,100.0
27.69,0.0,0.0,0.0,0.0,0.0,0.0,1268.0,100.0
27.69,0.0,0.0,0.0,0.0,16.0,0.0,1270.0,100.0
27.81,0.0,0.0,0.0,0.0,4.0,0.0,1272.0,100.0
27.69,0.0,0.0,0.0,0.0,9.0,0.0,1269.0,100.0
27.63,0.0,0.0,0.0,0.0,6.0,0.0,1272.0,100.0
27.79,0.0,0.0,0.0,0.0,9.0,0.0,1274.0,100.0
27.69,0.0,0.0,0.0,0.0,3.0,0.0,1302.0,100.0
27.73,0.0,0.0,0.0,0.0,0.0,0.0,1309.0,100.0
27.73,0.0,0.0,0.0,0.0,0.0,0.0,1313.0,100.0
27.73,0.0,0.0,0.0,0.0,0.0,0.0,1320.0,100.0
27.75,0.0,0.0,0.0,0.0,390.0,0.0,1326.0,100.0
27.73,0.0,0.0,0.0,0.0,0.0,0.0,1322.0,100.0
27.63,0.0,0.0,0.0,0.0,0.0,0.0,1329.0,100.0
27.63,0.0,0.0,0.0,0.0,0.0,0.0,1258.0,100.0
27.69,0.0,0.0,0.0,0.0,0.0,0.0,1182.0,100.0
27.73,0.0,0.0,0.0,0.0,119.0,0.0,1120.0,100.0
27.61,0.0,0.0,0.0,0.0,471.0,0.0,921.0,100.0
27.63,0.0,0.0,0.0,0.0,772.0,0.0,839.0,100.0
27.63,0.0,0.0,0.0,0.0,896.0,0.0,857.0,100.0
27.63,0.0,0.0,0.0,0.0,1143.0,0.0,895.0,100.0
27.61,0.0,0.0,0.0,0.0,1217.0,0.0,909.0,100.0
27.63,0.0,0.0,0.0,0.0,1267.0,0.0,917.0,100.0
27.59,0.0,0.0,0.0,0.0,1167.0,0.0,953.0,100.0
27.59,0.0,0.0,0.0,0.0,1243.0,0.0,964.0,100.0
27.59,0.0,0.0,0.0,0.0,1278.0,0.0,537.0,100.0
27.63,0.0,0.0,0.0,0.0,1088.0,0.0,837.0,100.0
27.55,0.0,0.0,0.0,0.0,753.0,0.0,963.0,100.0
27.55,0.0,0.0,0.0,0.0,610.0,0.0,1015.0,100.0
27.55,0.0,0.0,0.0,0.0,462.0,0.0,1095.0,100.0
27.59,0.0,16.0,0.0,0.0,191.0,0.0,1146.0,100.0
27.59,0.0,26.0,0.0,0.0,62.0,0.0,1377.0,100.0
27.59,0.0,0.0,0.0,0.0,0.0,0.0,1508.0,100.0
27.53,0.0,0.0,0.0,0.0,0.0,0.0,1549.0,100.0
27.55,0.0,0.0,0.0,0.0,0.0,0.0,1564.0,100.0
27.55,0.0,16.0,0.0,0.0,0.0,0.0,1581.0,100.0
27.55,0.0,0.0,0.0,0.0,0.0,0.0,1612.0,100.0
27.49,0.0,0.0,0.0,0.0,0.0,0.0,1539.0,100.0
27.59,0.0,0.0,0.0,0.0,0.0,0.0,1647.0,100.0
27.53,0.0,0.0,0.0,0.0,0.0,0.0,1682.0,100.0
27.53,0.0,0.0,0.0,0.0,0.0,0.0,1667.0,100.0
27.55,0.0,0.0,0.0,0.0,0.0,0.0,1678.0,100.0
27.53,0.0,0.0,0.0,0.0,0.0,0.0,1678.0,100.0
27.49,0.0,0.0,0.0,0.0,0.0,0.0,1699.0,100.0
27.53,0.0,0.0,0.0,0.0,0.0,0.0,1653.0,100.0
27.49,0.0,0.0,0.0,0.0,0.0,0.0,1604.0,100.0
27.49,0.0,16.0,0.0,0.0,0.0,0.0,1553.0,100.0
27.49,0.0,1.0,0.0,0.0,0.0,0.0,1548.0,100.0
27.53,0.0,0.0,0.0,0.0,0.0,0.0,1548.0,100.0
27.53,0.0,86.0,0.0,0.0,0.0,0.0,1447.0,100.0
27.49,0.0,118.0,0.0,0.0,55.0,0.0,1192.0,100.0
27.53,0.0,0.0,0.0,0.0,167.0,0.0,1064.0,100.0
27.49,0.0,142.0,0.0,0.0,346.0,0.0,944.0,100.0
27.47,0.0,93.0,0.0,0.0,780.0,0.0,847.0,100.0
27.49,0.0,112.0,0.0,0.0,962.0,0.0,898.0,100.0
27.49,0.0,16.0,0.0,0.0,1057.0,0.0,941.0,100.0
27.55,0.0,45.0,0.0,0.0,1152.0,0.0,944.0,100.0
27.49,0.0,61.0,0.0,0.0,1197.0,0.0,896.0,100.0
27.49,0.0,57.0,0.0,0.0,1187.0,0.0,925.0,100.0
27.53,0.0,48.0,0.0,0.0,1198.0,0.0,932.0,100.0
27.47,0.0,59.0,0.0,0.0,1202.0,0.0,926.0,100.0
27.53,0.0,0.0,0.0,0.0,0.0,0.0,0.0,15.0
28.11,0.0,0.0,0.0,0.0,0.0,0.0,0.0,15.0
28.27,0.0,0.0,0.0,0.0,0.0,0.0,0.0,15.0
28.79,0.0,0.0,0.0,0.0,0.0,0.0,0.0,15.0
29.43,0.0,0.0,0.0,0.0,0.0,0.0,0.0,15.0
29.45,0.0,0.0,0.0,0.0,0.0,0.0,0.0,15.0
29.09,0.0,0.0,0.0,0.0,0.0,0.0,0.0,15.0
28.59,0.0,0.0,0.0,0.0,0.0,0.0,0.0,15.0
28.23,0.0,0.0,0.0,0.0,0.0,0.0,0.0,15.0
28.17,0.0,0.0,0.0,0.0,0.0,0.0,0.0,15.0
28.27,0.0,0.0,0.0,0.0,0.0,0.0,0.0,15.0
28.37,0.0,0.0,0.0,0.0,0.0,0.0,0.0,15.0
28.27,0.0,0.0,0.0,0.0,0.0,0.0,0.0,15.0
28.45,0.0,0.0,0.0,0.0,0.0,0.0,0.0,15.0
28.39,0.0,0.0,0.0,0.0,0.0,0.0,0.0,15.0
28.51,0.0,0.0,0.0,0.0,0.0,0.0,0.0,15.0
28.43,0.0,0.0,0.0,0.0,0.0,0.0,0.0,15.0
28.17,0.0,0.0,0.0,0.0,0.0,0.0,0.0,15.0
28.11,0.0,0.0,0.0,0.0,0.0,0.0,0.0,15.0
28.01,0.0,0.0,0.0,0.0,0.0,0.0,0.0,15.0
27.91,0.0,0.0,0.0,0.0,0.0,0.0,0.0,15.0
27.87,0.0,0.0,0.0,0.0,0.0,0.0,0.0,18.0
27.85,0.0,0.0,0.0,0.0,0.0,0.0,0.0,20.0
27.85,0.0,0.0,0.0,0.0,0.0,0.0,0.0,20.0
27.93,0.0,0.0,0.0,0.0,0.0,0.0,0.0,20.0
27.91,0.0,0.0,0.0,0.0,0.0,0.0,0.0,20.0
28.13,0.0,0.0,0.0,331.0,0.0,0.0,0.0,20.0
28.11,0.0,0.0,0.0,0.0,0.0,0.0,0.0,20.0
28.19,0.0,0.0,0.0,0.0,0.0,0.0,0.0,20.0
28.19,0.0,0.0,0.0,0.0,0.0,0.0,0.0,21.0
28.17,0.0,0.0,0.0,0.0,0.0,0.0,0.0,21.0
28.27,0.0,0.0,0.0,0.0,0.0,0.0,0.0,21.0
28.37,0.0,0.0,0.0,0.0,0.0,0.0,0.0,21.0
28.53,0.0,0.0,0.0,0.0,0.0,0.0,0.0,21.0
28.69,0.0,0.0,0.0,0.0,0.0,0.0,0.0,21.0
28.69,0.0,0.0,0.0,0.0,0.0,0.0,0.0,21.0
28.69,0.0,0.0,0.0,0.0,0.0,0.0,0.0,21.0
28.57,0.0,0.0,0.0,0.0,0.0,0.0,0.0,21.0
28.51,0.0,0.0,0.0,0.0,0.0,0.0,0.0,21.0
28.47,0.0,0.0,0.0,0.0,0.0,0.0,0.0,21.0
28.51,0.0,0.0,0.0,0.0,0.0,0.0,0.0,15.0
28.01,0.0,0.0,0.0,0.0,0.0,0.0,0.0,15.0
27.91,0.0,0.0,0.0,0.0,0.0,0.0,0.0,15.0
27.99,0.0,0.0,0.0,0.0,0.0,0.0,0.0,15.0
27.93,0.0,0.0,0.0,0.0,0.0,0.0,0.0,15.0
28.33,0.0,0.0,0.0,0.0,0.0,0.0,0.0,15.0
32.77,0.0,0.0,0.0,0.0,0.0,0.0,0.0,15.0
41.29,0.0,0.0,0.0,0.0,0.0,0.0,0.0,15.0
53.99,0.0,0.0,0.0,0.0,0.0,0.0,0.0,15.0
54.89,0.0,0.0,0.0,0.0,0.0,0.0,0.0,15.0
55.81,0.0,0.0,0.0,0.0,0.0,0.0,0.0,15.0
56.95,0.0,0.0,0.0,0.0,0.0,0.0,0.0,15.0
57.55,0.0,0.0,0.0,0.0,0.0,0.0,0.0,15.0
57.65,0.0,0.0,0.0,0.0,0.0,0.0,0.0,24.0
56.49,0.0,0.0,0.0,0.0,0.0,0.0,0.0,34.0
57.43,0.0,0.0,0.0,0.0,0.0,0.0,0.0,44.0
58.29,0.0,0.0,0.0,0.0,0.0,0.0,0.0,54.0
58.05,0.0,0.0,0.0,0.0,0.0,0.0,0.0,63.0
57.67,0.0,0.0,0.0,0.0,215.0,0.0,1845.0,74.0
57.15,0.0,208.0,0.0,0.0,562.0,0.0,2562.0,85.0
56.75,0.0,269.0,0.0,0.0,480.0,0.0,2655.0,94.0
56.65,0.0,336.0,0.0,0.0,448.0,0.0,2654.0,100.0
56.63,0.0,438.0,0.0,144.0,452.0,0.0,2655.0,100.0
56.69,0.0,316.0,0.0,0.0,450.0,0.0,2772.0,100.0
56.79,0.0,379.0,0.0,0.0,460.0,0.0,2786.0,100.0
56.83,0.0,374.0,0.0,0.0,435.0,0.0,2762.0,100.0
56.89,0.0,445.0,0.0,0.0,464.0,0.0,2775.0,100.0
56.93,0.0,389.0,0.0,0.0,425.0,0.0,2773.0,100.0
56.91,0.0,387.0,0.0,0.0,450.0,0.0,2782.0,100.0
56.87,0.0,240.0,0.0,0.0,320.0,0.0,2629.0,100.0
56.79,0.0,244.0,0.0,0.0,328.0,0.0,2624.0,100.0
56.67,0.0,240.0,0.0,0.0,322.0,0.0,2632.0,100.0
56.65,0.0,223.0,0.0,0.0,335.0,0.0,2641.0,100.0
56.63,0.0,235.0,0.0,0.0,336.0,0.0,2647.0,100.0
56.57,0.0,235.0,0.0,0.0,336.0,0.0,2657.0,100.0
56.69,0.0,224.0,0.0,0.0,335.0,0.0,2668.0,100.0
56.87,0.0,219.0,0.0,0.0,210.0,0.0,2690.0,100.0
56.87,0.0,175.0,0.0,0.0,256.0,0.0,2711.0,100.0
56.75,0.0,113.0,0.0,0.0,246.0,0.0,2727.0,100.0
56.69,0.0,112.0,0.0,0.0,245.0,0.0,2751.0,100.0
56.49,0.0,110.0,0.0,0.0,242.0,0.0,2759.0,100.0
56.41,0.0,112.0,0.0,0.0,144.0,0.0,2759.0,100.0
56.25,0.0,111.0,0.0,0.0,251.0,0.0,2755.0,100.0
56.25,0.0,103.0,0.0,0.0,247.0,0.0,2758.0,100.0
56.21,0.0,73.0,0.0,0.0,235.0,0.0,2704.0,100.0
56.25,0.0,80.0,0.0,0.0,224.0,0.0,2756.0,100.0
56.23,0.0,107.0,0.0,0.0,232.0,0.0,2752.0,100.0
56.17,0.0,153.0,0.0,0.0,243.0,0.0,2669.0,100.0
56.15,0.0,213.0,0.0,0.0,311.0,0.0,2605.0,100.0
56.15,0.0,240.0,0.0,0.0,353.0,0.0,2472.0,100.0
56.23,0.0,276.0,0.0,0.0,400.0,0.0,2358.0,100.0
56.29,0.0,304.0,0.0,0.0,484.0,0.0,2308.0,100.0
56.35,0.0,266.0,0.0,0.0,624.0,0.0,2279.0,100.0
56.45,0.0,367.0,0.0,0.0,622.0,0.0,2264.0,100.0
56.57,0.0,482.0,0.0,0.0,825.0,0.0,2270.0,100.0
56.41,0.0,378.0,0.0,0.0,902.0,0.0,2341.0,100.0
56.37,0.0,400.0,0.0,0.0,928.0,0.0,2273.0,100.0
56.31,0.0,467.0,0.0,0.0,929.0,0.0,2274.0,100.0
56.27,0.0,366.0,0.0,0.0,933.0,0.0,2275.0,100.0
56.25,0.0,411.0,0.0,0.0,943.0,0.0,2382.0,100.0
56.21,0.0,418.0,0.0,0.0,946.0,0.0,2271.0,100.0
56.13,0.0,411.0,0.0,0.0,942.0,0.0,2336.0,100.0
56.09,0.0,429.0,0.0,0.0,944.0,0.0,2283.0,100.0
56.05,0.0,410.0,0.0,0.0,950.0,0.0,2288.0,100.0
56.05,0.0,426.0,0.0,0.0,938.0,0.0,2405.0,100.0
56.05,0.0,417.0,0.0,0.0,863.0,0.0,2290.0,100.0
56.03,0.0,399.0,0.0,0.0,791.0,0.0,2312.0,100.0
56.01,0.0,406.0,0.0,0.0,752.0,0.0,2336.0,100.0
56.15,0.0,429.0,0.0,0.0,822.0,0.0,2336.0,100.0
56.37,0.0,395.0,0.0,0.0,759.0,0.0,2338.0,100.0
56.53,0.0,417.0,0.0,0.0,757.0,0.0,2347.0,100.0
56.61,0.0,412.0,0.0,0.0,753.0,0.0,2350.0,100.0
56.61,0.0,400.0,0.0,0.0,752.0,0.0,2350.0,100.0
56.65,0.0,416.0,0.0,0.0,753.0,0.0,2354.0,100.0
56.57,0.0,423.0,0.0,0.0,703.0,0.0,2353.0,100.0
56.57,0.0,397.0,0.0,0.0,758.0,0.0,2361.0,100.0
56.63,0.0,384.0,0.0,0.0,657.0,0.0,2365.0,100.0
56.61,0.0,407.0,0.0,0.0,678.0,0.0,2378.0,100.0
56.61,0.0,406.0,0.0,0.0,677.0,0.0,2375.0,100.0
56.79,0.0,415.0,0.0,0.0,683.0,0.0,2391.0,100.0
56.87,0.0,404.0,0.0,0.0,599.0,0.0,2419.0,100.0
56.87,0.0,379.0,0.0,0.0,633.0,0.0,2415.0,100.0
56.79,0.0,400.0,0.0,0.0,635.0,0.0,2515.0,100.0
56.79,0.0,395.0,0.0,0.0,637.0,0.0,2405.0,100.0
56.85,0.0,384.0,0.0,0.0,605.0,0.0,2529.0,100.0
56.73,0.0,382.0,0.0,0.0,592.0,0.0,2543.0,100.0
56.71,0.0,381.0,0.0,0.0,580.0,0.0,2548.0,100.0
56.61,0.0,384.0,0.0,0.0,577.0,0.0,2554.0,100.0
56.53,0.0,389.0,0.0,0.0,583.0,0.0,2543.0,100.0
56.49,0.0,379.0,0.0,0.0,586.0,0.0,2538.0,100.0
56.37,0.0,375.0,0.0,0.0,572.0,0.0,2542.0,100.0
56.13,0.0,346.0,0.0,0.0,576.0,0.0,2552.0,100.0
56.17,0.0,389.0,0.0,0.0,599.0,0.0,2532.0,100.0
56.09,0.0,262.0,0.0,0.0,566.0,0.0,2540.0,100.0
56.05,0.0,368.0,0.0,0.0,565.0,0.0,2540.0,100.0
56.05,0.0,394.0,0.0,0.0,573.0,0.0,2541.0,100.0
56.09,0.0,387.0,0.0,0.0,566.0,0.0,2548.0,100.0
56.11,0.0,398.0,0.0,0.0,571.0,0.0,2543.0,100.0
56.11,0.0,389.0,0.0,0.0,566.0,0.0,2544.0,100.0
56.23,0.0,400.0,0.0,0.0,548.0,0.0,2535.0,100.0
56.25,0.0,391.0,0.0,0.0,563.0,0.0,2548.0,100.0
56.21,0.0,399.0,0.0,0.0,538.0,0.0,2553.0,100.0
56.13,0.0,393.0,0.0,0.0,541.0,0.0,2558.0,100.0
56.13,0.0,0.0,0.0,0.0,0.0,0.0,2472.0,15.0
35.83,0.0,0.0,0.0,0.0,0.0,0.0,0.0,15.0
28.53,0.0,0.0,0.0,0.0,0.0,0.0,0.0,15.0
28.37,0.0,0.0,0.0,0.0,0.0,0.0,0.0,15.0
28.25,0.0,0.0,0.0,0.0,0.0,0.0,0.0,15.0
28.25,0.0,0.0,0.0,0.0,0.0,0.0,0.0,15.0
28.11,0.0,0.0,0.0,0.0,0.0,0.0,0.0,15.0
27.99,0.0,0.0,0.0,0.0,0.0,0.0,0.0,15.0
27.93,0.0,0.0,0.0,0.0,0.0,0.0,0.0,15.0
27.95,0.0,0.0,0.0,0.0,0.0,0.0,0.0,15.0
28.01,0.0,0.0,0.0,0.0,0.0,0.0,0.0,15.0
27.85,0.0,0.0,0.0,0.0,0.0,0.0,0.0,15.0
27.73,0.0,0.0,0.0,0.0,0.0,0.0,0.0,15.0
27.73,0.0,0.0,0.0,0.0,0.0,0.0,0.0,15.0
27.53,0.0,0.0,0.0,0.0,0.0,0.0,0.0,15.0
27.55,0.0,0.0,0.0,0.0,0.0,0.0,0.0,15.0
27.69,0.0,0.0,0.0,0.0,0.0,0.0,0.0,15.0
27.47,0.0,0.0,0.0,0.0,0.0,0.0,0.0,15.0
27.55,0.0,0.0,0.0,0.0,0.0,0.0,0.0,15.0
27.53,0.0,0.0,0.0,0.0,0.0,0.0,0.0,15.0
27.49,0.0,0.0,0.0,0.0,0.0,0.0,0.0,15.0
27.53,0.0,0.0,0.0,0.0,0.0,0.0,0.0,15.0
27.63,0.0,0.0,0.0,0.0,0.0,0.0,0.0,15.0
27.55,0.0,0.0,0.0,0.0,0.0,0.0,0.0,15.0
27.63,0.0,0.0,0.0,0.0,0.0,0.0,0.0,15.0
27.67,0.0,0.0,0.0,0.0,0.0,0.0,0.0,15.0
27.63,0.0,0.0,0.0,0.0,0.0,0.0,0.0,15.0
27.55,0.0,0.0,0.0,0.0,0.0,0.0,0.0,15.0
27.55,0.0,0.0,0.0,0.0,0.0,0.0,0.0,15.0
27.53,0.0,0.0,0.0,0.0,0.0,0.0,0.0,15.0
27.67,0.0,0.0,0.0,0.0,0.0,0.0,0.0,15.0
27.87,0.0,0.0,0.0,0.0,0.0,0.0,0.0,15.0
27.87,0.0,0.0,0.0,0.0,0.0,0.0,0.0,15.0
27.95,0.0,0.0,0.0,0.0,0.0,0.0,0.0,15.0
27.95,0.0,0.0,0.0,0.0,0.0,0.0,0.0,15.0
28.01,0.0,0.0,0.0,0.0,0.0,0.0,0.0,15.0
28.07,0.0,0.0,0.0,0.0,0.0,0.0,0.0,15.0
28.07,0.0,0.0,0.0,0.0,0.0,0.0,0.0,15.0
28.07,0.0,0.0,0.0,0.0,0.0,0.0,0.0,15.0
28.07,0.0,0.0,0.0,0.0,0.0,0.0,0.0,15.0
28.11,0.0,0.0,0.0,0.0,0.0,0.0,0.0,15.0
28.05,0.0,0.0,0.0,0.0,0.0,0.0,0.0,15.0
28.07,0.0,0.0,0.0,0.0,0.0,0.0,0.0,15.0
27.95,0.0,0.0,0.0,0.0,0.0,0.0,0.0,15.0
27.91,0.0,0.0,0.0,0.0,0.0,0.0,0.0,15.0
27.95,0.0,0.0,0.0,0.0,0.0,0.0,0.0,15.0
27.99,0.0,0.0,0.0,0.0,0.0,0.0,0.0,15.0
28.05,0.0,0.0,0.0,0.0,0.0,0.0,0.0,15.0
28.19,0.0,0.0,0.0,0.0,0.0,0.0,0.0,15.0
27.81,0.0,0.0,0.0,0.0,0.0,0.0,0.0,15.0
28.17,0.0,0.0,0.0,0.0,0.0,0.0,0.0,15.0
28.19,0.0,0.0,0.0,0.0,0.0,0.0,0.0,15.0
28.17,0.0,0.0,0.0,0.0,0.0,0.0,0.0,15.0
28.31,0.0,0.0,0.0,0.0,0.0,0.0,0.0,15.0
28.31,0.0,0.0,0.0,0.0,0.0,0.0,0.0,15.0
27.99,0.0,0.0,0.0,0.0,0.0,0.0,0.0,19.0
28.05,0.0,0.0,0.0,0.0,0.0,0.0,0.0,28.0
28.05,0.0,0.0,0.0,0.0,0.0,0.0,0.0,39.0
27.85,0.0,0.0,0.0,0.0,0.0,0.0,0.0,48.0
28.01,0.0,0.0,0.0,0.0,0.0,0.0,0.0,60.0
28.01,0.0,0.0,0.0,0.0,0.0,0.0,0.0,70.0
27.91,0.0,0.0,0.0,0.0,0.0,0.0,738.0,79.0
27.85,0.0,157.0,0.0,0.0,0.0,0.0,2272.0,90.0
27.85,0.0,171.0,0.0,0.0,0.0,0.0,2381.0,100.0
27.75,0.0,192.0,0.0,0.0,0.0,0.0,2410.0,100.0
27.91,0.0,192.0,0.0,0.0,0.0,0.0,2448.0,100.0
27.79,0.0,196.0,0.0,0.0,0.0,0.0,2461.0,100.0
27.85,0.0,215.0,0.0,0.0,0.0,0.0,2480.0,100.0
27.85,0.0,205.0,0.0,0.0,0.0,0.0,2483.0,100.0
27.85,0.0,208.0,0.0,0.0,0.0,0.0,2496.0,100.0
27.79,0.0,165.0,0.0,0.0,0.0,0.0,2492.0,100.0
27.91,0.0,190.0,0.0,0.0,0.0,0.0,2438.0,100.0
27.91,0.0,242.0,0.0,0.0,0.0,0.0,2320.0,100.0
27.87,0.0,139.0,0.0,0.0,0.0,0.0,2332.0,100.0
27.91,0.0,133.0,0.0,0.0,0.0,0.0,2337.0,100.0
27.99,0.0,112.0,0.0,0.0,0.0,0.0,2343.0,100.0
27.99,0.0,134.0,0.0,0.0,0.0,0.0,2345.0,100.0
28.05,0.0,139.0,0.0,0.0,0.0,0.0,2358.0,100.0
28.05,0.0,138.0,0.0,0.0,0.0,0.0,2349.0,100.0
28.05,0.0,144.0,0.0,0.0,0.0,0.0,2359.0,100.0
27.99,0.0,138.0,0.0,0.0,0.0,0.0,2349.0,100.0
27.99,0.0,142.0,0.0,0.0,0.0,0.0,2367.0,100.0
28.05,0.0,145.0,0.0,0.0,0.0,0.0,2362.0,100.0
27.99,0.0,208.0,0.0,0.0,0.0,0.0,2364.0,100.0
27.95,0.0,144.0,0.0,0.0,0.0,0.0,2375.0,100.0
27.91,0.0,133.0,0.0,0.0,0.0,0.0,2365.0,100.0
27.75,0.0,143.0,0.0,0.0,0.0,0.0,2372.0,100.0
27.79,0.0,156.0,0.0,0.0,0.0,0.0,2363.0,100.0
27.79,0.0,144.0,0.0,0.0,0.0,0.0,2341.0,100.0
27.81,0.0,155.0,0.0,0.0,0.0,0.0,2326.0,100.0
27.73,0.0,157.0,0.0,0.0,0.0,0.0,2332.0,100.0
27.75,0.0,164.0,0.0,0.0,0.0,0.0,2330.0,100.0
27.75,0.0,159.0,0.0,0.0,0.0,0.0,2330.0,100.0
27.85,0.0,160.0,0.0,0.0,0.0,0.0,2341.0,100.0
27.69,0.0,165.0,0.0,0.0,0.0,0.0,2344.0,100.0
27.85,0.0,170.0,0.0,0.0,0.0,0.0,2345.0,100.0
27.79,0.0,162.0,0.0,0.0,0.0,0.0,2349.0,100.0
27.79,0.0,160.0,0.0,0.0,0.0,0.0,2343.0,100.0
27.79,0.0,165.0,0.0,0.0,0.0,0.0,2340.0,100.0
27.79,0.0,167.0,0.0,0.0,0.0,0.0,2349.0,100.0
27.75,0.0,163.0,0.0,0.0,0.0,0.0,2344.0,100.0
27.79,0.0,128.0,0.0,0.0,0.0,0.0,2346.0,100.0
27.85,0.0,169.0,0.0,0.0,0.0,0.0,2342.0,100.0
27.79,0.0,144.0,0.0,0.0,0.0,0.0,2348.0,100.0
27.79,0.0,174.0,0.0,0.0,0.0,0.0,2344.0,100.0
27.85,0.0,160.0,0.0,0.0,0.0,0.0,2347.0,100.0
27.75,0.0,146.0,0.0,0.0,0.0,0.0,2368.0,100.0
27.81,0.0,164.0,0.0,0.0,0.0,0.0,2368.0,100.0
27.87,0.0,165.0,0.0,0.0,0.0,0.0,2364.0,100.0
27.95,0.0,138.0,0.0,0.0,0.0,0.0,2364.0,100.0
27.87,0.0,134.0,0.0,0.0,0.0,0.0,2381.0,100.0
27.75,0.0,131.0,0.0,0.0,0.0,0.0,2377.0,100.0
27.85,0.0,154.0,0.0,0.0,0.0,0.0,2382.0,100.0
27.91,0.0,157.0,0.0,0.0,0.0,0.0,2388.0,100.0
27.85,0.0,156.0,0.0,0.0,0.0,0.0,2386.0,100.0
27.95,0.0,153.0,0.0,0.0,0.0,0.0,2402.0,100.0
27.99,0.0,0.0,0.0,0.0,0.0,0.0,2393.0,100.0
28.01,0.0,194.0,0.0,0.0,0.0,0.0,2392.0,100.0
27.99,0.0,156.0,0.0,0.0,0.0,0.0,2388.0,100.0
27.99,0.0,128.0,0.0,0.0,0.0,0.0,2391.0,100.0
27.99,0.0,153.0,0.0,0.0,0.0,0.0,2395.0,100.0
27.95,0.0,158.0,0.0,0.0,0.0,0.0,2397.0,100.0
27.95,0.0,158.0,0.0,0.0,0.0,0.0,2396.0,100.0
27.91,0.0,161.0,0.0,0.0,0.0,0.0,2392.0,100.0
27.79,0.0,160.0,0.0,0.0,0.0,0.0,2389.0,100.0
27.75,0.0,158.0,0.0,0.0,0.0,0.0,2384.0,100.0
27.75,0.0,163.0,0.0,0.0,0.0,0.0,2381.0,100.0
27.75,0.0,164.0,0.0,0.0,0.0,0.0,2378.0,100.0
27.75,0.0,167.0,0.0,0.0,0.0,0.0,2368.0,100.0
27.69,0.0,167.0,0.0,0.0,0.0,0.0,2373.0,100.0
27.63,0.0,167.0,0.0,0.0,0.0,0.0,2362.0,100.0
27.75,0.0,176.0,0.0,0.0,0.0,0.0,2367.0,100.0
27.63,0.0,174.0,0.0,0.0,0.0,0.0,2359.0,100.0
27.63,0.0,159.0,0.0,0.0,0.0,0.0,2373.0,100.0
27.63,0.0,173.0,0.0,0.0,0.0,0.0,2373.0,100.0
27.67,0.0,164.0,0.0,0.0,0.0,0.0,2366.0,100.0
27.63,0.0,154.0,0.0,0.0,0.0,0.0,2360.0,100.0
27.67,0.0,176.0,0.0,0.0,0.0,0.0,2365.0,100.0
27.67,0.0,128.0,0.0,0.0,0.0,0.0,2363.0,100.0
27.61,0.0,159.0,0.0,0.0,0.0,0.0,2370.0,100.0
27.59,0.0,176.0,0.0,0.0,0.0,0.0,2366.0,100.0
27.61,0.0,171.0,0.0,0.0,0.0,0.0,2371.0,100.0
27.61,0.0,178.0,0.0,0.0,0.0,0.0,2365.0,100.0
27.67,0.0,200.0,0.0,0.0,0.0,0.0,2368.0,100.0
27.79,0.0,0.0,0.0,0.0,0.0,0.0,0.0,15.0
27.75,0.0,0.0,0.0,0.0,0.0,0.0,0.0,15.0
27.49,0.0,0.0,0.0,0.0,0.0,0.0,0.0,15.0
27.49,0.0,0.0,0.0,0.0,0.0,0.0,0.0,15.0
27.55,0.0,0.0,0.0,0.0,0.0,0.0,0.0,15.0
27.67,0.0,0.0,0.0,0.0,0.0,0.0,0.0,15.0
27.63,0.0,0.0,0.0,0.0,0.0,0.0,0.0,15.0
27.67,0.0,0.0,0.0,0.0,0.0,0.0,0.0,15.0
27.59,0.0,0.0,0.0,0.0,0.0,0.0,0.0,15.0
27.59,0.0,0.0,0.0,0.0,0.0,0.0,0.0,15.0
27.93,0.0,0.0,0.0,0.0,0.0,0.0,0.0,15.0
27.93,0.0,0.0,0.0,0.0,0.0,0.0,0.0,15.0
27.93,0.0,0.0,0.0,0.0,0.0,0.0,0.0,15.0
27.85,0.0,0.0,0.0,0.0,0.0,0.0,0.0,15.0
27.79,0.0,0.0,0.0,0.0,0.0,0.0,0.0,15.0
27.43,0.0,0.0,0.0,0.0,0.0,0.0,0.0,15.0
27.49,0.0,0.0,0.0,0.0,0.0,0.0,0.0,15.0
27.61,0.0,0.0,0.0,0.0,0.0,0.0,0.0,15.0
27.53,0.0,0.0,0.0,0.0,0.0,0.0,0.0,15.0
27.49,0.0,0.0,0.0,0.0,0.0,0.0,0.0,15.0
