tempMLX,FSR_A1,FSR_A2,FSR_A3,FSR_B1,FSR_B2,FSR_B3,FSR_C,porcAper
0.0,0.0,0.0,0.0,0.0,0.0,0.0,0.0,15.0
0.0,0.0,0.0,0.0,0.0,0.0,0.0,0.0,15.0
27.17,0.0,0.0,0.0,0.0,0.0,0.0,0.0,15.0
27.15,0.0,0.0,0.0,0.0,0.0,0.0,0.0,15.0
27.15,0.0,0.0,0.0,0.0,0.0,0.0,0.0,15.0
27.17,0.0,0.0,0.0,0.0,0.0,0.0,0.0,15.0
27.17,0.0,0.0,0.0,0.0,0.0,0.0,0.0,15.0
27.11,0.0,0.0,0.0,0.0,0.0,0.0,0.0,15.0
27.15,0.0,0.0,0.0,0.0,0.0,0.0,0.0,15.0
27.11,0.0,0.0,0.0,0.0,0.0,0.0,0.0,15.0
27.15,0.0,0.0,0.0,0.0,0.0,0.0,0.0,15.0
27.17,0.0,0.0,0.0,0.0,0.0,0.0,0.0,15.0
27.11,0.0,0.0,0.0,0.0,0.0,0.0,0.0,15.0
27.17,0.0,0.0,0.0,0.0,0.0,0.0,0.0,15.0
27.15,0.0,0.0,0.0,0.0,0.0,0.0,0.0,15.0
27.17,0.0,0.0,0.0,0.0,0.0,0.0,0.0,15.0
27.09,0.0,0.0,0.0,0.0,0.0,0.0,0.0,15.0
27.11,0.0,0.0,0.0,0.0,0.0,0.0,0.0,15.0
27.11,0.0,0.0,0.0,0.0,0.0,0.0,0.0,15.0
27.15,0.0,0.0,0.0,0.0,0.0,0.0,0.0,15.0
27.15,0.0,0.0,0.0,0.0,0.0,0.0,0.0,15.0
27.15,0.0,0.0,0.0,0.0,0.0,0.0,0.0,15.0
27.09,0.0,0.0,0.0,0.0,0.0,0.0,0.0,15.0
27.17,0.0,0.0,0.0,0.0,0.0,0.0,0.0,15.0
27.15,0.0,0.0,0.0,0.0,0.0,0.0,0.0,15.0
27.15,0.0,0.0,0.0,0.0,0.0,0.0,0.0,15.0
27.17,0.0,0.0,0.0,0.0,0.0,0.0,0.0,15.0
27.17,0.0,0.0,0.0,0.0,0.0,0.0,0.0,15.0
27.17,0.0,0.0,0.0,0.0,0.0,0.0,0.0,15.0
27.23,0.0,0.0,0.0,0.0,0.0,0.0,0.0,15.0
27.17,0.0,0.0,0.0,0.0,0.0,0.0,0.0,15.0
27.23,0.0,0.0,0.0,0.0,0.0,0.0,0.0,15.0
27.25,0.0,0.0,0.0,0.0,0.0,0.0,0.0,15.0
27.29,0.0,0.0,0.0,0.0,0.0,0.0,0.0,15.0
27.23,0.0,0.0,0.0,0.0,0.0,0.0,0.0,15.0
27.25,0.0,0.0,0.0,0.0,0.0,0.0,0.0,15.0
27.17,0.0,0.0,0.0,0.0,0.0,0.0,0.0,15.0
27.21,0.0,0.0,0.0,0.0,0.0,0.0,0.0,15.0
27.15,0.0,0.0,0.0,0.0,0.0,0.0,0.0,15.0
27.15,0.0,0.0,0.0,0.0,0.0,0.0,0.0,15.0
27.17,0.0,0.0,0.0,0.0,0.0,0.0,0.0,15.0
27.11,0.0,0.0,0.0,0.0,0.0,0.0,0.0,15.0
27.09,0.0,0.0,0.0,0.0,0.0,0.0,0.0,15.0
27.17,0.0,0.0,0.0,0.0,0.0,0.0,0.0,15.0
27.21,0.0,0.0,0.0,0.0,0.0,0.0,0.0,15.0
27.17,0.0,0.0,0.0,0.0,0.0,0.0,0.0,15.0
27.15,0.0,0.0,0.0,0.0,0.0,0.0,0.0,15.0
27.21,0.0,0.0,0.0,0.0,0.0,0.0,0.0,15.0
27.17,0.0,0.0,0.0,0.0,0.0,0.0,0.0,15.0
27.17,0.0,0.0,0.0,0.0,0.0,0.0,0.0,15.0
27.05,0.0,0.0,0.0,0.0,0.0,0.0,0.0,15.0
27.05,0.0,0.0,0.0,0.0,0.0,0.0,0.0,15.0
27.15,0.0,0.0,0.0,0.0,0.0,0.0,0.0,15.0
27.21,0.0,0.0,0.0,0.0,0.0,0.0,0.0,15.0
27.09,0.0,0.0,0.0,0.0,0.0,0.0,0.0,15.0
27.05,0.0,0.0,0.0,0.0,0.0,0.0,0.0,15.0
27.09,0.0,0.0,0.0,0.0,0.0,0.0,0.0,15.0
27.15,0.0,0.0,0.0,0.0,0.0,0.0,0.0,15.0
27.09,0.0,0.0,0.0,0.0,0.0,0.0,0.0,15.0
27.09,0.0,0.0,0.0,0.0,0.0,0.0,0.0,15.0
27.09,0.0,0.0,0.0,0.0,0.0,0.0,0.0,15.0
27.09,0.0,0.0,0.0,0.0,0.0,0.0,0.0,15.0
27.09,0.0,0.0,0.0,0.0,0.0,0.0,0.0,15.0
27.05,0.0,0.0,0.0,0.0,0.0,0.0,0.0,15.0
27.15,0.0,0.0,0.0,0.0,0.0,0.0,0.0,15.0
27.17,0.0,0.0,0.0,0.0,0.0,0.0,0.0,15.0
27.09,0.0,0.0,0.0,0.0,0.0,0.0,0.0,15.0
27.09,0.0,0.0,0.0,0.0,0.0,0.0,0.0,15.0
27.11,0.0,0.0,0.0,0.0,0.0,0.0,0.0,15.0
27.17,0.0,0.0,0.0,0.0,0.0,0.0,0.0,15.0
27.21,0.0,0.0,0.0,0.0,0.0,0.0,0.0,15.0
27.17,0.0,0.0,0.0,0.0,0.0,0.0,0.0,15.0
27.15,0.0,0.0,0.0,0.0,0.0,0.0,0.0,15.0
27.15,0.0,0.0,0.0,0.0,0.0,0.0,0.0,15.0
27.15,0.0,0.0,0.0,0.0,0.0,0.0,0.0,15.0
27.15,0.0,0.0,0.0,0.0,0.0,0.0,0.0,15.0
27.09,0.0,0.0,0.0,0.0,0.0,0.0,0.0,15.0
27.09,0.0,0.0,0.0,0.0,0.0,0.0,0.0,15.0
27.09,0.0,0.0,0.0,0.0,0.0,0.0,0.0,15.0
27.09,0.0,0.0,0.0,0.0,0.0,0.0,0.0,15.0
27.09,0.0,0.0,0.0,0.0,0.0,0.0,0.0,15.0
27.17,0.0,0.0,0.0,0.0,0.0,0.0,0.0,15.0
27.15,0.0,0.0,0.0,0.0,0.0,0.0,0.0,15.0
27.15,0.0,0.0,0.0,0.0,0.0,0.0,0.0,15.0
27.15,0.0,0.0,0.0,0.0,0.0,0.0,0.0,15.0
27.23,0.0,0.0,0.0,0.0,0.0,0.0,0.0,15.0
27.21,0.0,0.0,0.0,0.0,0.0,0.0,0.0,15.0
27.21,0.0,0.0,0.0,0.0,0.0,0.0,0.0,15.0
27.15,0.0,0.0,0.0,0.0,0.0,0.0,0.0,15.0
27.15,0.0,0.0,0.0,0.0,0.0,0.0,0.0,15.0
27.21,0.0,0.0,0.0,0.0,0.0,0.0,0.0,15.0
27.17,0.0,0.0,0.0,0.0,0.0,0.0,0.0,15.0
27.25,0.0,0.0,0.0,0.0,0.0,0.0,0.0,15.0
27.23,0.0,0.0,0.0,0.0,0.0,0.0,0.0,15.0
27.15,0.0,0.0,0.0,0.0,0.0,0.0,0.0,15.0
27.17,0.0,0.0,0.0,0.0,0.0,0.0,0.0,15.0
27.17,0.0,0.0,0.0,0.0,0.0,0.0,0.0,15.0
27.09,0.0,0.0,0.0,0.0,0.0,0.0,0.0,15.0
27.17,0.0,0.0,0.0,0.0,0.0,0.0,0.0,15.0
27.21,0.0,0.0,0.0,0.0,0.0,0.0,0.0,15.0
27.15,0.0,0.0,0.0,0.0,0.0,0.0,0.0,15.0
27.05,0.0,0.0,0.0,0.0,0.0,0.0,0.0,15.0
27.15,0.0,0.0,0.0,0.0,0.0,0.0,0.0,15.0
27.17,0.0,0.0,0.0,0.0,0.0,0.0,0.0,15.0
27.15,0.0,0.0,0.0,0.0,0.0,0.0,0.0,15.0
27.09,0.0,0.0,0.0,0.0,0.0,0.0,0.0,15.0
27.09,0.0,0.0,0.0,0.0,0.0,0.0,0.0,15.0
27.09,0.0,0.0,0.0,0.0,0.0,0.0,0.0,15.0
27.05,0.0,0.0,0.0,0.0,0.0,0.0,0.0,15.0
27.23,0.0,0.0,0.0,0.0,0.0,0.0,0.0,15.0
27.29,0.0,0.0,0.0,0.0,0.0,0.0,0.0,15.0
27.21,0.0,0.0,0.0,0.0,0.0,0.0,0.0,15.0
27.21,0.0,0.0,0.0,0.0,0.0,0.0,0.0,15.0
27.21,0.0,0.0,0.0,0.0,0.0,0.0,0.0,15.0
27.17,0.0,0.0,0.0,0.0,0.0,0.0,0.0,15.0
27.11,0.0,0.0,0.0,0.0,0.0,0.0,0.0,15.0
27.17,0.0,0.0,0.0,0.0,0.0,0.0,0.0,15.0
27.15,0.0,0.0,0.0,0.0,0.0,0.0,0.0,15.0
26.99,0.0,0.0,0.0,0.0,0.0,0.0,0.0,15.0
27.05,0.0,0.0,0.0,0.0,0.0,0.0,0.0,15.0
27.09,0.0,0.0,0.0,0.0,0.0,0.0,0.0,15.0
27.05,0.0,0.0,0.0,0.0,0.0,0.0,0.0,15.0
27.21,0.0,0.0,0.0,0.0,0.0,0.0,0.0,15.0
27.09,0.0,0.0,0.0,0.0,0.0,0.0,0.0,15.0
27.15,0.0,0.0,0.0,0.0,0.0,0.0,0.0,15.0
27.17,0.0,0.0,0.0,0.0,0.0,0.0,0.0,15.0
27.15,0.0,0.0,0.0,0.0,0.0,0.0,0.0,15.0
27.21,0.0,0.0,0.0,0.0,0.0,0.0,0.0,15.0
27.25,0.0,0.0,0.0,0.0,0.0,0.0,0.0,15.0
27.21,0.0,0.0,0.0,0.0,0.0,0.0,0.0,15.0
27.17,0.0,0.0,0.0,0.0,0.0,0.0,0.0,15.0
27.17,0.0,0.0,0.0,0.0,0.0,0.0,0.0,15.0
27.17,0.0,0.0,0.0,0.0,0.0,0.0,0.0,15.0
27.29,0.0,0.0,0.0,0.0,0.0,0.0,0.0,15.0
27.21,0.0,0.0,0.0,0.0,0.0,0.0,0.0,15.0
27.17,0.0,0.0,0.0,0.0,0.0,0.0,0.0,15.0
27.15,0.0,0.0,0.0,0.0,0.0,0.0,0.0,15.0
27.25,0.0,0.0,0.0,0.0,0.0,0.0,0.0,15.0
27.23,0.0,0.0,0.0,0.0,0.0,0.0,0.0,15.0
27.25,0.0,0.0,0.0,0.0,0.0,0.0,0.0,15.0
27.23,0.0,0.0,0.0,0.0,0.0,0.0,0.0,15.0
27.25,0.0,0.0,0.0,0.0,0.0,0.0,0.0,15.0
27.17,0.0,0.0,0.0,0.0,0.0,0.0,0.0,15.0
27.23,0.0,0.0,0.0,0.0,0.0,0.0,0.0,15.0
27.23,0.0,0.0,0.0,0.0,0.0,0.0,0.0,15.0
27.17,0.0,0.0,0.0,0.0,0.0,0.0,0.0,15.0
27.09,0.0,0.0,0.0,0.0,0.0,0.0,0.0,15.0
27.11,0.0,0.0,0.0,0.0,0.0,0.0,0.0,15.0
27.17,0.0,0.0,0.0,0.0,0.0,0.0,0.0,15.0
27.17,0.0,0.0,0.0,0.0,0.0,0.0,0.0,15.0
27.25,0.0,0.0,0.0,0.0,0.0,0.0,0.0,15.0
27.25,0.0,0.0,0.0,0.0,0.0,0.0,0.0,15.0
27.25,0.0,0.0,0.0,0.0,0.0,0.0,0.0,15.0
27.25,0.0,0.0,0.0,0.0,0.0,0.0,0.0,21.0
27.21,0.0,0.0,0.0,0.0,0.0,0.0,0.0,31.0
27.17,0.0,0.0,0.0,0.0,0.0,0.0,0.0,42.0
27.23,0.0,0.0,0.0,0.0,0.0,0.0,0.0,51.0
27.21,44.0,0.0,0.0,0.0,0.0,0.0,0.0,61.0
27.15,0.0,0.0,0.0,0.0,0.0,0.0,36.0,71.0
27.15,0.0,0.0,0.0,0.0,0.0,0.0,346.0,80.0
27.17,0.0,0.0,0.0,0.0,0.0,0.0,294.0,82.0
27.23,0.0,0.0,0.0,0.0,0.0,0.0,298.0,86.0
27.17,0.0,0.0,0.0,0.0,0.0,0.0,316.0,86.0
27.23,0.0,0.0,0.0,0.0,0.0,0.0,306.0,86.0
27.31,0.0,0.0,0.0,0.0,0.0,0.0,310.0,86.0
27.29,0.0,0.0,0.0,0.0,0.0,0.0,319.0,86.0
27.29,0.0,0.0,0.0,0.0,0.0,0.0,302.0,86.0
27.29,0.0,0.0,0.0,0.0,0.0,0.0,306.0,86.0
27.29,0.0,0.0,0.0,0.0,0.0,0.0,303.0,86.0
27.29,0.0,0.0,0.0,0.0,0.0,0.0,297.0,86.0
27.31,0.0,0.0,0.0,0.0,0.0,0.0,285.0,86.0
27.23,0.0,0.0,0.0,0.0,0.0,0.0,303.0,86.0
27.21,0.0,0.0,0.0,0.0,273.0,0.0,300.0,86.0
27.23,0.0,0.0,0.0,0.0,0.0,0.0,302.0,86.0
27.17,0.0,0.0,0.0,0.0,0.0,0.0,300.0,86.0
27.21,0.0,0.0,0.0,0.0,0.0,0.0,301.0,86.0
27.09,0.0,0.0,0.0,0.0,0.0,0.0,300.0,86.0
27.15,0.0,0.0,0.0,0.0,0.0,0.0,304.0,86.0
27.17,0.0,0.0,0.0,0.0,0.0,0.0,291.0,86.0
27.23,0.0,0.0,0.0,0.0,0.0,0.0,295.0,90.0
27.21,0.0,0.0,0.0,0.0,0.0,0.0,291.0,90.0
27.23,0.0,0.0,0.0,0.0,0.0,0.0,302.0,90.0
27.17,0.0,0.0,0.0,0.0,0.0,0.0,301.0,94.0
27.23,0.0,0.0,0.0,0.0,0.0,0.0,294.0,94.0
27.11,0.0,0.0,0.0,0.0,0.0,0.0,304.0,94.0
27.17,0.0,0.0,0.0,0.0,0.0,0.0,309.0,94.0
27.11,0.0,0.0,0.0,0.0,0.0,0.0,302.0,94.0
27.09,0.0,0.0,0.0,0.0,0.0,0.0,307.0,94.0
27.11,0.0,0.0,0.0,0.0,0.0,0.0,301.0,96.0
27.21,0.0,0.0,0.0,0.0,0.0,0.0,316.0,96.0
27.11,0.0,0.0,0.0,0.0,0.0,0.0,326.0,96.0
27.15,0.0,0.0,0.0,0.0,0.0,0.0,331.0,96.0
27.23,0.0,0.0,0.0,0.0,0.0,0.0,341.0,96.0
27.17,0.0,0.0,0.0,0.0,0.0,0.0,347.0,100.0
27.21,0.0,0.0,0.0,0.0,0.0,0.0,355.0,100.0
27.11,0.0,0.0,0.0,0.0,0.0,0.0,353.0,100.0
27.11,0.0,0.0,0.0,0.0,0.0,0.0,352.0,100.0
27.15,0.0,0.0,0.0,0.0,0.0,0.0,321.0,100.0
27.09,0.0,0.0,0.0,0.0,0.0,0.0,325.0,100.0
27.11,0.0,0.0,0.0,0.0,0.0,0.0,304.0,100.0
27.09,0.0,0.0,0.0,0.0,0.0,0.0,303.0,100.0
27.15,0.0,0.0,0.0,0.0,0.0,0.0,305.0,100.0
27.15,0.0,0.0,0.0,0.0,0.0,0.0,304.0,100.0
27.11,0.0,0.0,0.0,0.0,0.0,0.0,302.0,100.0
27.11,0.0,0.0,0.0,0.0,0.0,0.0,305.0,100.0
27.29,0.0,0.0,0.0,0.0,0.0,0.0,304.0,100.0
27.29,0.0,0.0,0.0,0.0,0.0,0.0,309.0,100.0
27.31,0.0,0.0,0.0,0.0,0.0,0.0,315.0,100.0
27.25,0.0,0.0,2.0,0.0,0.0,0.0,314.0,100.0
27.23,0.0,0.0,0.0,0.0,0.0,0.0,313.0,100.0
27.29,0.0,0.0,0.0,0.0,0.0,0.0,321.0,100.0
27.21,0.0,0.0,0.0,0.0,0.0,0.0,319.0,100.0
27.25,0.0,0.0,0.0,0.0,0.0,0.0,319.0,100.0
27.25,0.0,0.0,6.0,0.0,0.0,0.0,316.0,100.0
27.31,0.0,0.0,0.0,0.0,0.0,0.0,318.0,100.0
27.21,0.0,0.0,0.0,0.0,0.0,0.0,316.0,100.0
27.21,0.0,0.0,0.0,0.0,0.0,0.0,317.0,100.0
27.23,0.0,0.0,0.0,0.0,0.0,0.0,316.0,100.0
27.25,0.0,0.0,0.0,0.0,0.0,0.0,317.0,100.0
27.23,0.0,0.0,0.0,0.0,0.0,0.0,315.0,100.0
27.11,0.0,0.0,0.0,0.0,0.0,0.0,314.0,100.0
27.09,0.0,0.0,0.0,0.0,0.0,0.0,310.0,100.0
27.05,0.0,0.0,0.0,0.0,0.0,0.0,314.0,100.0
27.11,0.0,0.0,0.0,0.0,0.0,0.0,318.0,100.0
27.11,0.0,0.0,0.0,0.0,0.0,0.0,316.0,100.0
27.17,0.0,0.0,0.0,0.0,0.0,0.0,318.0,100.0
27.11,0.0,0.0,0.0,0.0,0.0,0.0,312.0,100.0
27.11,0.0,0.0,0.0,0.0,0.0,0.0,315.0,100.0
27.11,0.0,0.0,0.0,0.0,0.0,0.0,323.0,100.0
27.15,0.0,0.0,0.0,0.0,0.0,0.0,316.0,100.0
27.25,0.0,0.0,0.0,0.0,0.0,0.0,310.0,100.0
27.23,112.0,0.0,0.0,0.0,0.0,0.0,312.0,100.0
27.21,0.0,0.0,0.0,0.0,0.0,0.0,311.0,100.0
27.21,0.0,0.0,0.0,0.0,0.0,0.0,316.0,100.0
27.23,0.0,0.0,0.0,0.0,0.0,0.0,318.0,100.0
27.23,0.0,0.0,0.0,0.0,0.0,0.0,321.0,100.0
27.29,0.0,0.0,0.0,0.0,0.0,0.0,319.0,100.0
27.29,0.0,0.0,1.0,0.0,0.0,0.0,321.0,15.0
27.23,0.0,0.0,0.0,0.0,0.0,0.0,0.0,15.0
27.21,0.0,0.0,0.0,0.0,0.0,0.0,0.0,15.0
27.15,0.0,0.0,0.0,0.0,0.0,0.0,0.0,15.0
27.15,0.0,0.0,0.0,0.0,0.0,0.0,0.0,15.0
27.53,0.0,0.0,0.0,0.0,0.0,0.0,0.0,15.0
27.67,0.0,0.0,0.0,0.0,0.0,0.0,0.0,15.0
27.81,0.0,0.0,0.0,0.0,0.0,0.0,0.0,15.0
27.11,0.0,0.0,0.0,0.0,0.0,0.0,0.0,15.0
27.09,0.0,0.0,0.0,0.0,0.0,0.0,0.0,15.0
28.37,0.0,0.0,0.0,0.0,0.0,0.0,0.0,15.0
28.65,0.0,0.0,0.0,0.0,0.0,0.0,0.0,15.0
28.71,0.0,0.0,0.0,0.0,0.0,0.0,0.0,15.0
27.15,0.0,0.0,0.0,0.0,0.0,0.0,0.0,15.0
27.15,0.0,0.0,0.0,0.0,0.0,0.0,0.0,15.0
27.15,0.0,0.0,0.0,0.0,0.0,0.0,0.0,15.0
27.21,0.0,0.0,0.0,0.0,0.0,0.0,0.0,15.0
27.15,0.0,0.0,0.0,0.0,0.0,0.0,0.0,15.0
27.23,0.0,0.0,0.0,0.0,0.0,0.0,0.0,15.0
27.23,0.0,0.0,0.0,0.0,0.0,0.0,0.0,15.0
27.15,0.0,0.0,0.0,0.0,0.0,0.0,0.0,15.0
27.17,0.0,0.0,0.0,0.0,0.0,0.0,0.0,15.0
27.17,0.0,0.0,0.0,0.0,0.0,0.0,0.0,15.0
27.17,0.0,0.0,0.0,0.0,0.0,0.0,0.0,15.0
27.15,0.0,0.0,0.0,0.0,0.0,0.0,0.0,15.0
27.17,0.0,0.0,0.0,0.0,0.0,0.0,0.0,15.0
27.23,0.0,0.0,0.0,0.0,0.0,0.0,0.0,15.0
27.15,0.0,0.0,0.0,0.0,0.0,0.0,0.0,15.0
27.23,0.0,0.0,0.0,0.0,0.0,0.0,0.0,15.0
27.15,0.0,0.0,0.0,0.0,0.0,0.0,0.0,15.0
27.15,0.0,0.0,0.0,0.0,0.0,0.0,0.0,15.0
27.23,0.0,0.0,0.0,0.0,0.0,0.0,0.0,15.0
27.21,0.0,0.0,0.0,0.0,0.0,0.0,0.0,15.0
27.17,0.0,0.0,0.0,0.0,0.0,0.0,0.0,15.0
27.23,0.0,0.0,0.0,0.0,0.0,0.0,0.0,15.0
27.17,0.0,0.0,0.0,0.0,0.0,0.0,0.0,15.0
27.23,0.0,0.0,0.0,0.0,0.0,0.0,0.0,15.0
27.23,0.0,0.0,0.0,0.0,0.0,0.0,0.0,15.0
27.11,0.0,0.0,0.0,0.0,0.0,0.0,0.0,15.0
27.15,0.0,0.0,0.0,0.0,0.0,0.0,0.0,15.0
27.03,0.0,0.0,0.0,0.0,0.0,0.0,0.0,15.0
27.11,0.0,0.0,0.0,0.0,0.0,0.0,0.0,15.0
27.15,0.0,0.0,0.0,0.0,0.0,0.0,0.0,15.0
27.15,0.0,0.0,0.0,0.0,0.0,0.0,0.0,15.0
27.05,0.0,0.0,0.0,0.0,0.0,0.0,0.0,15.0
27.15,0.0,0.0,0.0,0.0,0.0,0.0,0.0,15.0
27.03,0.0,0.0,0.0,0.0,0.0,0.0,0.0,15.0
26.97,0.0,0.0,0.0,0.0,0.0,0.0,0.0,15.0
26.41,0.0,0.0,0.0,0.0,0.0,0.0,0.0,15.0
26.31,0.0,0.0,0.0,0.0,0.0,0.0,0.0,15.0
26.43,0.0,0.0,0.0,0.0,0.0,0.0,0.0,15.0
26.21,0.0,0.0,0.0,0.0,0.0,0.0,0.0,24.0
26.09,0.0,0.0,0.0,0.0,0.0,0.0,0.0,33.0
26.09,0.0,0.0,0.0,0.0,0.0,0.0,0.0,43.0
25.99,0.0,0.0,0.0,0.0,0.0,0.0,0.0,52.0
26.31,0.0,0.0,0.0,0.0,0.0,0.0,0.0,62.0
26.31,0.0,0.0,0.0,0.0,0.0,0.0,0.0,72.0
26.37,0.0,0.0,0.0,0.0,0.0,0.0,0.0,82.0
26.35,0.0,0.0,0.0,0.0,0.0,0.0,0.0,83.0
26.31,0.0,0.0,0.0,0.0,0.0,0.0,0.0,83.0
26.31,0.0,0.0,0.0,0.0,0.0,0.0,0.0,89.0
26.29,0.0,54.0,0.0,0.0,0.0,0.0,1079.0,98.0
26.29,0.0,368.0,0.0,0.0,0.0,0.0,1709.0,100.0
26.31,0.0,367.0,0.0,0.0,0.0,0.0,1719.0,100.0
26.29,0.0,384.0,0.0,0.0,0.0,0.0,1744.0,100.0
26.35,0.0,386.0,0.0,0.0,0.0,0.0,1750.0,100.0
26.41,0.0,340.0,0.0,0.0,0.0,0.0,1723.0,100.0
26.35,0.0,340.0,0.0,0.0,0.0,0.0,1753.0,100.0
26.31,0.0,336.0,0.0,0.0,0.0,0.0,1755.0,100.0
26.31,0.0,315.0,0.0,0.0,0.0,0.0,1758.0,100.0
26.35,0.0,318.0,0.0,0.0,0.0,0.0,1749.0,100.0
26.35,0.0,310.0,0.0,0.0,0.0,0.0,1745.0,100.0
26.37,0.0,308.0,0.0,0.0,0.0,0.0,1753.0,100.0
26.37,0.0,272.0,0.0,0.0,0.0,0.0,1660.0,100.0
26.35,0.0,400.0,0.0,0.0,0.0,0.0,1821.0,100.0
26.37,38.0,480.0,0.0,0.0,0.0,0.0,1921.0,100.0
26.37,0.0,499.0,0.0,0.0,0.0,0.0,1941.0,100.0
26.35,0.0,496.0,0.0,0.0,0.0,0.0,2055.0,100.0
26.31,0.0,526.0,0.0,0.0,28.0,0.0,2072.0,100.0
26.41,0.0,529.0,0.0,0.0,38.0,0.0,2070.0,100.0
26.31,0.0,525.0,0.0,0.0,36.0,0.0,2081.0,100.0
26.41,0.0,526.0,0.0,0.0,38.0,0.0,2087.0,100.0
26.35,0.0,528.0,0.0,0.0,39.0,0.0,2103.0,100.0
26.37,0.0,528.0,0.0,0.0,32.0,0.0,2100.0,100.0
26.35,0.0,528.0,0.0,0.0,18.0,0.0,2103.0,100.0
26.37,4.0,533.0,0.0,0.0,44.0,0.0,2105.0,100.0
26.41,0.0,533.0,0.0,0.0,46.0,0.0,2108.0,100.0
26.37,0.0,525.0,0.0,0.0,49.0,0.0,2112.0,100.0
26.37,0.0,531.0,0.0,0.0,48.0,0.0,2112.0,100.0
26.35,0.0,528.0,0.0,0.0,46.0,0.0,2115.0,100.0
26.37,0.0,527.0,0.0,0.0,41.0,0.0,2125.0,100.0
26.37,0.0,528.0,0.0,0.0,54.0,0.0,2126.0,100.0
26.31,0.0,489.0,0.0,0.0,49.0,0.0,2127.0,100.0
26.31,0.0,532.0,0.0,0.0,80.0,0.0,2134.0,100.0
26.31,0.0,531.0,0.0,0.0,52.0,0.0,2134.0,100.0
26.31,0.0,531.0,0.0,0.0,55.0,0.0,2133.0,100.0
26.35,0.0,532.0,0.0,0.0,47.0,0.0,2139.0,100.0
26.37,0.0,533.0,0.0,0.0,48.0,0.0,2136.0,100.0
26.35,0.0,526.0,0.0,0.0,64.0,0.0,2137.0,100.0
26.31,0.0,528.0,0.0,0.0,54.0,0.0,2131.0,100.0
26.31,0.0,509.0,0.0,0.0,72.0,0.0,2021.0,100.0
26.35,0.0,528.0,0.0,0.0,64.0,0.0,2132.0,100.0
26.31,0.0,531.0,0.0,0.0,61.0,0.0,2126.0,100.0
26.43,0.0,528.0,0.0,0.0,81.0,0.0,2137.0,100.0
26.35,0.0,528.0,0.0,0.0,64.0,0.0,2135.0,100.0
26.35,0.0,530.0,0.0,0.0,0.0,0.0,2135.0,100.0
26.35,0.0,528.0,0.0,0.0,80.0,0.0,2096.0,100.0
26.35,0.0,526.0,0.0,0.0,61.0,0.0,2098.0,100.0
26.29,0.0,510.0,0.0,0.0,64.0,0.0,2055.0,100.0
26.41,0.0,511.0,0.0,0.0,75.0,0.0,2045.0,100.0
26.35,0.0,506.0,0.0,0.0,64.0,0.0,2118.0,100.0
26.35,0.0,525.0,0.0,0.0,52.0,0.0,2125.0,100.0
26.37,0.0,558.0,0.0,0.0,62.0,0.0,2131.0,100.0
26.41,0.0,511.0,0.0,0.0,0.0,0.0,2127.0,100.0
26.41,0.0,496.0,0.0,0.0,50.0,0.0,2116.0,100.0
26.43,0.0,503.0,0.0,0.0,48.0,0.0,2133.0,100.0
26.35,0.0,482.0,0.0,0.0,43.0,0.0,2135.0,100.0
26.37,0.0,480.0,0.0,0.0,0.0,0.0,2143.0,100.0
26.37,0.0,467.0,0.0,0.0,46.0,0.0,2173.0,100.0
26.47,0.0,501.0,0.0,0.0,53.0,0.0,2175.0,100.0
26.43,0.0,437.0,0.0,0.0,49.0,0.0,2183.0,100.0
26.47,0.0,464.0,0.0,0.0,53.0,0.0,2189.0,100.0
26.43,0.0,464.0,0.0,0.0,53.0,0.0,2182.0,100.0
26.47,0.0,415.0,0.0,0.0,86.0,0.0,2184.0,100.0
26.43,0.0,459.0,0.0,0.0,53.0,0.0,2198.0,100.0
26.35,0.0,460.0,0.0,0.0,57.0,0.0,2208.0,100.0
26.41,0.0,460.0,0.0,0.0,60.0,0.0,2201.0,100.0
26.43,0.0,461.0,0.0,0.0,54.0,0.0,2208.0,100.0
26.41,0.0,460.0,0.0,0.0,63.0,0.0,2202.0,100.0
26.43,0.0,455.0,0.0,0.0,49.0,0.0,2211.0,100.0
26.43,0.0,456.0,0.0,0.0,65.0,0.0,2219.0,100.0
26.43,0.0,461.0,0.0,0.0,62.0,0.0,2214.0,100.0
26.43,0.0,463.0,0.0,0.0,62.0,0.0,2223.0,100.0
26.41,0.0,454.0,0.0,0.0,64.0,0.0,2218.0,100.0
26.41,0.0,457.0,0.0,0.0,65.0,0.0,2223.0,100.0
26.43,0.0,449.0,0.0,0.0,65.0,0.0,2216.0,100.0
26.37,0.0,443.0,0.0,0.0,63.0,0.0,2216.0,100.0
26.47,0.0,436.0,0.0,0.0,64.0,0.0,2218.0,100.0
26.43,0.0,444.0,0.0,0.0,64.0,0.0,2224.0,100.0
26.43,0.0,432.0,0.0,0.0,0.0,0.0,2224.0,100.0
26.37,0.0,443.0,0.0,0.0,64.0,0.0,2221.0,100.0
26.37,0.0,437.0,0.0,0.0,63.0,0.0,2215.0,100.0
26.41,0.0,447.0,0.0,0.0,75.0,0.0,2198.0,100.0
26.41,0.0,447.0,0.0,0.0,65.0,0.0,2194.0,100.0
26.43,0.0,449.0,0.0,0.0,69.0,0.0,2184.0,100.0
26.43,0.0,435.0,0.0,0.0,0.0,0.0,2178.0,100.0
26.41,0.0,443.0,0.0,0.0,66.0,0.0,2145.0,100.0
26.37,0.0,0.0,0.0,0.0,0.0,0.0,121.0,22.0
27.67,0.0,0.0,0.0,0.0,0.0,0.0,7.0,30.0
27.63,0.0,0.0,0.0,0.0,0.0,0.0,0.0,30.0
27.61,0.0,0.0,0.0,0.0,0.0,0.0,0.0,30.0
27.31,0.0,0.0,0.0,0.0,0.0,0.0,0.0,30.0
27.29,0.0,0.0,0.0,0.0,0.0,0.0,0.0,30.0
27.91,0.0,0.0,0.0,0.0,0.0,0.0,0.0,30.0
27.79,0.0,0.0,0.0,0.0,0.0,0.0,0.0,30.0
27.67,0.0,0.0,0.0,0.0,0.0,0.0,0.0,30.0
27.23,0.0,0.0,0.0,0.0,0.0,0.0,0.0,30.0
27.17,0.0,0.0,0.0,0.0,0.0,0.0,0.0,30.0
27.17,0.0,0.0,0.0,0.0,0.0,0.0,0.0,30.0
27.23,0.0,0.0,0.0,0.0,0.0,0.0,0.0,30.0
27.23,0.0,0.0,0.0,0.0,0.0,0.0,0.0,30.0
27.17,0.0,0.0,0.0,0.0,0.0,0.0,0.0,30.0
27.17,0.0,0.0,0.0,0.0,0.0,0.0,0.0,30.0
27.17,0.0,0.0,0.0,0.0,0.0,0.0,0.0,30.0
27.21,0.0,0.0,0.0,0.0,0.0,0.0,0.0,30.0
27.21,0.0,0.0,0.0,0.0,0.0,0.0,0.0,30.0
27.25,0.0,0.0,0.0,0.0,0.0,0.0,0.0,30.0
27.25,0.0,0.0,0.0,0.0,0.0,0.0,0.0,30.0
27.37,0.0,0.0,0.0,0.0,0.0,0.0,0.0,30.0
27.35,0.0,0.0,0.0,0.0,0.0,0.0,0.0,30.0
27.31,0.0,0.0,0.0,0.0,0.0,0.0,0.0,30.0
27.37,0.0,0.0,0.0,0.0,0.0,0.0,0.0,30.0
27.35,0.0,0.0,0.0,0.0,0.0,0.0,0.0,30.0
27.35,0.0,0.0,0.0,0.0,0.0,0.0,0.0,30.0
27.35,0.0,0.0,0.0,0.0,0.0,0.0,0.0,30.0
27.41,0.0,0.0,0.0,0.0,0.0,0.0,0.0,30.0
27.35,0.0,0.0,0.0,0.0,0.0,0.0,0.0,30.0
27.35,0.0,0.0,0.0,0.0,0.0,0.0,0.0,30.0
27.43,0.0,0.0,0.0,0.0,0.0,0.0,0.0,30.0
27.41,0.0,0.0,0.0,0.0,0.0,0.0,0.0,30.0
27.37,0.0,0.0,0.0,0.0,0.0,0.0,0.0,30.0
27.35,0.0,0.0,0.0,0.0,0.0,0.0,0.0,30.0
27.37,0.0,0.0,0.0,0.0,0.0,0.0,0.0,30.0
27.41,0.0,0.0,0.0,0.0,0.0,0.0,0.0,30.0
27.31,0.0,0.0,0.0,0.0,0.0,0.0,0.0,30.0
27.35,0.0,0.0,0.0,0.0,0.0,0.0,0.0,30.0
27.31,0.0,0.0,0.0,0.0,0.0,0.0,0.0,30.0
27.35,0.0,0.0,0.0,0.0,0.0,0.0,0.0,30.0
27.35,0.0,0.0,0.0,0.0,0.0,0.0,0.0,15.0
27.37,0.0,0.0,0.0,0.0,0.0,0.0,0.0,15.0
27.35,0.0,0.0,0.0,0.0,0.0,0.0,0.0,15.0
27.35,0.0,0.0,0.0,0.0,0.0,0.0,0.0,15.0
27.81,0.0,0.0,0.0,0.0,0.0,0.0,0.0,15.0
28.39,0.0,0.0,0.0,0.0,0.0,0.0,0.0,15.0
37.01,0.0,0.0,0.0,0.0,0.0,0.0,0.0,15.0
45.09,0.0,0.0,0.0,0.0,0.0,0.0,0.0,15.0
47.99,0.0,0.0,0.0,0.0,0.0,0.0,0.0,18.0
47.81,0.0,0.0,0.0,0.0,0.0,0.0,0.0,27.0
47.97,0.0,0.0,0.0,0.0,0.0,0.0,0.0,36.0
47.93,0.0,0.0,0.0,0.0,0.0,0.0,0.0,45.0
47.63,0.0,0.0,0.0,0.0,0.0,0.0,0.0,55.0
47.07,0.0,0.0,0.0,0.0,0.0,0.0,0.0,65.0
46.47,0.0,0.0,0.0,0.0,0.0,0.0,1341.0,71.0
46.29,0.0,0.0,0.0,0.0,0.0,0.0,1632.0,71.0
46.27,0.0,0.0,0.0,0.0,0.0,0.0,1683.0,73.0
46.23,0.0,0.0,0.0,0.0,0.0,0.0,1720.0,74.0
46.23,0.0,0.0,0.0,0.0,0.0,0.0,1746.0,79.0
46.19,0.0,0.0,0.0,0.0,0.0,0.0,1781.0,79.0
46.19,0.0,0.0,0.0,0.0,0.0,0.0,1794.0,79.0
46.27,0.0,0.0,0.0,0.0,0.0,0.0,1838.0,79.0
46.23,0.0,0.0,0.0,0.0,0.0,0.0,1846.0,79.0
46.19,0.0,0.0,0.0,0.0,0.0,0.0,1809.0,79.0
46.25,0.0,0.0,0.0,0.0,0.0,0.0,1776.0,79.0
46.25,0.0,0.0,0.0,0.0,0.0,0.0,1791.0,79.0
46.27,0.0,0.0,0.0,0.0,0.0,0.0,1747.0,79.0
46.27,0.0,0.0,0.0,0.0,0.0,0.0,1447.0,79.0
46.29,0.0,0.0,0.0,0.0,0.0,0.0,1388.0,79.0
46.27,0.0,0.0,0.0,0.0,0.0,0.0,1184.0,79.0
46.25,0.0,0.0,0.0,0.0,0.0,0.0,1234.0,79.0
46.27,0.0,0.0,0.0,0.0,0.0,0.0,1239.0,79.0
46.27,0.0,0.0,0.0,0.0,0.0,0.0,1282.0,80.0
46.25,0.0,0.0,0.0,0.0,0.0,0.0,1528.0,87.0
46.31,0.0,0.0,0.0,0.0,0.0,0.0,1524.0,87.0
46.31,0.0,0.0,0.0,0.0,0.0,0.0,1702.0,87.0
46.29,0.0,0.0,0.0,0.0,0.0,0.0,1883.0,92.0
46.27,0.0,0.0,0.0,0.0,0.0,0.0,1949.0,93.0
46.23,0.0,0.0,0.0,0.0,0.0,0.0,1968.0,93.0
46.31,0.0,0.0,0.0,0.0,0.0,0.0,1981.0,100.0
46.35,0.0,0.0,0.0,0.0,0.0,0.0,1994.0,100.0
46.35,0.0,0.0,0.0,0.0,0.0,0.0,1997.0,100.0
46.35,0.0,0.0,0.0,0.0,0.0,0.0,1998.0,100.0
46.51,0.0,0.0,0.0,0.0,0.0,0.0,2000.0,100.0
46.47,0.0,0.0,0.0,0.0,0.0,0.0,2002.0,100.0
46.35,0.0,0.0,0.0,0.0,0.0,0.0,2845.0,100.0
46.35,0.0,0.0,0.0,0.0,0.0,0.0,2877.0,100.0
46.11,0.0,0.0,0.0,0.0,0.0,0.0,2814.0,100.0
46.19,0.0,0.0,0.0,0.0,0.0,0.0,2658.0,100.0
46.15,0.0,0.0,0.0,0.0,0.0,0.0,2662.0,100.0
46.13,0.0,0.0,0.0,0.0,0.0,0.0,2664.0,100.0
46.11,0.0,0.0,0.0,0.0,0.0,0.0,2676.0,100.0
46.15,0.0,0.0,0.0,0.0,0.0,0.0,2719.0,100.0
46.07,0.0,0.0,0.0,0.0,0.0,0.0,2736.0,100.0
46.13,0.0,0.0,0.0,0.0,0.0,0.0,2733.0,100.0
46.17,0.0,0.0,0.0,0.0,0.0,0.0,2744.0,100.0
46.23,0.0,0.0,0.0,0.0,0.0,0.0,2737.0,100.0
46.23,0.0,0.0,0.0,0.0,0.0,0.0,2742.0,100.0
46.19,0.0,0.0,0.0,0.0,0.0,0.0,2744.0,100.0
46.19,0.0,0.0,0.0,0.0,0.0,0.0,2764.0,100.0
46.17,0.0,0.0,0.0,0.0,0.0,0.0,2800.0,100.0
46.29,0.0,0.0,0.0,0.0,0.0,0.0,2842.0,100.0
46.29,0.0,0.0,0.0,0.0,0.0,0.0,2852.0,100.0
46.23,0.0,0.0,0.0,0.0,0.0,0.0,2859.0,100.0
46.25,0.0,0.0,0.0,0.0,0.0,0.0,2861.0,100.0
46.19,0.0,0.0,0.0,0.0,0.0,0.0,2862.0,100.0
46.17,0.0,0.0,0.0,0.0,0.0,0.0,2856.0,100.0
46.23,0.0,0.0,0.0,0.0,0.0,0.0,2858.0,100.0
46.15,0.0,0.0,0.0,0.0,0.0,0.0,2861.0,100.0
46.13,0.0,0.0,0.0,0.0,0.0,0.0,2864.0,100.0
46.15,0.0,0.0,0.0,0.0,0.0,0.0,2854.0,100.0
46.17,0.0,0.0,0.0,0.0,0.0,0.0,2864.0,100.0
46.13,0.0,0.0,0.0,0.0,0.0,0.0,2845.0,100.0
46.13,0.0,0.0,0.0,0.0,0.0,0.0,2915.0,100.0
46.15,0.0,0.0,0.0,0.0,0.0,0.0,2934.0,100.0
46.15,0.0,0.0,0.0,0.0,0.0,0.0,2954.0,100.0
46.13,0.0,0.0,0.0,0.0,0.0,0.0,2954.0,100.0
46.13,0.0,0.0,0.0,0.0,0.0,0.0,2955.0,100.0
46.17,0.0,0.0,0.0,0.0,0.0,0.0,2964.0,100.0
46.11,0.0,0.0,0.0,0.0,0.0,0.0,2955.0,100.0
46.15,0.0,0.0,0.0,0.0,0.0,0.0,2957.0,100.0
46.07,0.0,0.0,0.0,0.0,0.0,0.0,2966.0,100.0
46.11,0.0,0.0,0.0,0.0,0.0,0.0,2993.0,100.0
46.11,0.0,0.0,0.0,0.0,0.0,0.0,2994.0,100.0
46.11,0.0,0.0,0.0,0.0,0.0,0.0,2983.0,100.0
46.15,0.0,0.0,0.0,0.0,0.0,0.0,2988.0,100.0
46.13,0.0,0.0,0.0,0.0,0.0,0.0,2983.0,100.0
46.17,0.0,0.0,0.0,0.0,0.0,0.0,2992.0,100.0
46.19,0.0,0.0,0.0,0.0,0.0,0.0,2987.0,100.0
46.13,0.0,0.0,0.0,0.0,0.0,0.0,2989.0,100.0
46.15,0.0,0.0,0.0,0.0,0.0,0.0,2994.0,100.0
46.13,0.0,0.0,0.0,0.0,0.0,0.0,2990.0,100.0
46.13,0.0,0.0,0.0,0.0,0.0,0.0,2998.0,100.0
46.17,0.0,0.0,0.0,0.0,0.0,0.0,3001.0,100.0
46.23,0.0,0.0,0.0,0.0,0.0,0.0,3003.0,100.0
46.19,0.0,0.0,0.0,0.0,0.0,0.0,3006.0,100.0
46.23,0.0,0.0,0.0,0.0,0.0,0.0,3002.0,100.0
46.15,0.0,0.0,0.0,0.0,0.0,0.0,3008.0,100.0
46.17,0.0,0.0,0.0,0.0,0.0,0.0,3004.0,100.0
46.13,0.0,0.0,0.0,0.0,0.0,0.0,3010.0,100.0
46.19,0.0,0.0,0.0,0.0,0.0,0.0,3013.0,100.0
46.23,0.0,0.0,0.0,0.0,0.0,0.0,3026.0,100.0
46.13,0.0,0.0,0.0,0.0,0.0,0.0,3007.0,100.0
46.19,0.0,0.0,0.0,0.0,0.0,0.0,3010.0,100.0
46.19,0.0,0.0,0.0,0.0,0.0,0.0,2887.0,15.0
46.59,0.0,0.0,0.0,0.0,0.0,0.0,32.0,15.0
31.71,0.0,0.0,0.0,0.0,0.0,0.0,0.0,15.0
27.95,0.0,0.0,0.0,0.0,0.0,0.0,0.0,15.0
27.91,0.0,0.0,0.0,0.0,0.0,0.0,0.0,15.0
27.91,0.0,0.0,0.0,0.0,0.0,0.0,0.0,15.0
27.79,0.0,0.0,0.0,0.0,0.0,0.0,0.0,15.0
27.81,0.0,0.0,0.0,0.0,0.0,0.0,0.0,15.0
27.75,0.0,0.0,0.0,0.0,0.0,0.0,0.0,15.0
27.95,0.0,0.0,0.0,0.0,0.0,0.0,0.0,15.0
27.93,0.0,0.0,0.0,0.0,0.0,0.0,0.0,15.0
28.75,0.0,0.0,0.0,0.0,0.0,0.0,0.0,15.0
27.79,0.0,0.0,0.0,0.0,248.0,0.0,0.0,15.0
27.61,0.0,0.0,0.0,0.0,0.0,0.0,0.0,15.0
27.61,0.0,0.0,0.0,0.0,0.0,0.0,0.0,15.0
27.67,0.0,0.0,0.0,0.0,0.0,0.0,0.0,15.0
27.67,0.0,0.0,0.0,0.0,0.0,0.0,0.0,15.0
27.85,0.0,0.0,0.0,0.0,0.0,0.0,0.0,15.0
27.91,0.0,0.0,0.0,0.0,0.0,0.0,0.0,15.0
27.91,0.0,0.0,0.0,0.0,0.0,0.0,0.0,15.0
27.93,0.0,0.0,0.0,0.0,0.0,0.0,0.0,15.0
27.91,0.0,0.0,0.0,0.0,0.0,0.0,0.0,15.0
27.91,0.0,0.0,0.0,0.0,0.0,0.0,0.0,15.0
27.93,0.0,0.0,0.0,0.0,0.0,0.0,0.0,15.0
27.69,0.0,0.0,0.0,0.0,0.0,0.0,0.0,15.0
27.67,0.0,0.0,0.0,0.0,0.0,0.0,0.0,15.0
27.55,0.0,0.0,0.0,0.0,0.0,0.0,0.0,15.0
27.53,0.0,0.0,0.0,0.0,0.0,0.0,0.0,15.0
27.55,0.0,0.0,0.0,0.0,0.0,0.0,0.0,15.0
27.53,0.0,0.0,0.0,0.0,0.0,0.0,0.0,15.0
27.55,0.0,0.0,0.0,0.0,0.0,0.0,0.0,15.0
27.61,0.0,0.0,0.0,0.0,0.0,0.0,0.0,15.0
27.63,0.0,0.0,0.0,0.0,0.0,0.0,0.0,15.0
27.61,0.0,0.0,0.0,0.0,0.0,0.0,0.0,15.0
27.59,0.0,0.0,0.0,0.0,0.0,0.0,0.0,15.0
27.67,0.0,0.0,0.0,0.0,0.0,0.0,0.0,15.0
27.61,0.0,0.0,0.0,0.0,0.0,0.0,0.0,15.0
27.85,0.0,0.0,0.0,0.0,0.0,0.0,0.0,15.0
27.91,0.0,0.0,0.0,0.0,0.0,0.0,0.0,15.0
27.81,0.0,0.0,0.0,0.0,0.0,0.0,0.0,15.0
27.87,0.0,0.0,0.0,0.0,0.0,0.0,0.0,15.0
27.91,0.0,0.0,0.0,0.0,0.0,0.0,0.0,15.0
27.69,0.0,0.0,0.0,0.0,0.0,0.0,0.0,15.0
27.85,0.0,0.0,0.0,0.0,0.0,0.0,0.0,15.0
27.91,0.0,0.0,0.0,0.0,0.0,0.0,0.0,15.0
27.93,0.0,0.0,0.0,0.0,0.0,0.0,0.0,15.0
28.01,0.0,0.0,0.0,0.0,0.0,0.0,0.0,15.0
27.93,0.0,0.0,0.0,0.0,0.0,0.0,0.0,15.0
27.95,0.0,0.0,0.0,0.0,0.0,0.0,0.0,15.0
27.81,0.0,0.0,0.0,0.0,0.0,0.0,0.0,15.0
27.79,0.0,0.0,0.0,0.0,0.0,0.0,0.0,17.0
27.69,0.0,0.0,0.0,0.0,0.0,0.0,0.0,27.0
27.63,0.0,0.0,0.0,0.0,0.0,0.0,0.0,37.0
27.91,0.0,0.0,0.0,0.0,0.0,0.0,0.0,44.0
27.95,0.0,0.0,0.0,0.0,0.0,0.0,0.0,44.0
27.99,0.0,0.0,0.0,0.0,0.0,0.0,0.0,52.0
27.99,0.0,0.0,0.0,0.0,0.0,0.0,0.0,62.0
27.75,0.0,0.0,0.0,0.0,0.0,0.0,0.0,71.0
27.55,0.0,0.0,0.0,0.0,0.0,0.0,0.0,80.0
27.55,0.0,0.0,0.0,0.0,0.0,0.0,0.0,91.0
27.47,0.0,0.0,0.0,0.0,0.0,816.0,219.0,100.0
27.49,0.0,0.0,0.0,0.0,0.0,967.0,258.0,100.0
27.43,0.0,0.0,0.0,0.0,0.0,957.0,262.0,100.0
27.49,0.0,0.0,0.0,0.0,0.0,976.0,303.0,100.0
27.47,0.0,0.0,0.0,0.0,0.0,976.0,306.0,100.0
27.47,0.0,0.0,0.0,0.0,0.0,973.0,313.0,100.0
27.53,0.0,0.0,0.0,0.0,0.0,971.0,313.0,100.0
27.49,0.0,0.0,0.0,0.0,0.0,976.0,313.0,100.0
27.47,0.0,0.0,0.0,0.0,0.0,960.0,258.0,100.0
27.43,0.0,0.0,0.0,0.0,0.0,950.0,247.0,100.0
27.43,0.0,0.0,0.0,0.0,0.0,960.0,247.0,100.0
27.37,0.0,0.0,0.0,0.0,0.0,976.0,255.0,100.0
27.41,0.0,0.0,0.0,0.0,0.0,971.0,254.0,100.0
27.41,0.0,0.0,0.0,0.0,0.0,980.0,260.0,100.0
27.47,0.0,0.0,0.0,0.0,0.0,976.0,259.0,100.0
27.43,0.0,0.0,0.0,0.0,0.0,981.0,261.0,100.0
27.43,0.0,0.0,0.0,0.0,0.0,987.0,262.0,100.0
27.41,0.0,0.0,0.0,0.0,0.0,987.0,266.0,100.0
27.35,0.0,0.0,0.0,0.0,0.0,980.0,265.0,100.0
27.31,0.0,0.0,0.0,0.0,0.0,982.0,259.0,100.0
27.37,0.0,0.0,0.0,0.0,0.0,992.0,256.0,100.0
27.35,0.0,0.0,0.0,0.0,0.0,908.0,262.0,100.0
27.31,0.0,0.0,0.0,0.0,0.0,942.0,257.0,100.0
27.41,0.0,0.0,0.0,0.0,0.0,989.0,258.0,100.0
27.31,0.0,0.0,0.0,0.0,0.0,991.0,259.0,100.0
27.37,0.0,0.0,0.0,0.0,0.0,994.0,256.0,100.0
27.31,0.0,0.0,0.0,0.0,0.0,995.0,249.0,100.0
27.31,0.0,0.0,0.0,0.0,0.0,989.0,252.0,100.0
27.29,0.0,0.0,0.0,0.0,0.0,999.0,250.0,100.0
27.25,0.0,0.0,0.0,0.0,0.0,997.0,252.0,100.0
27.25,0.0,0.0,0.0,0.0,0.0,991.0,251.0,100.0
27.31,0.0,0.0,0.0,0.0,0.0,983.0,252.0,100.0
27.35,0.0,0.0,0.0,0.0,0.0,990.0,251.0,100.0
27.35,0.0,0.0,0.0,0.0,0.0,992.0,252.0,100.0
27.35,0.0,0.0,0.0,0.0,0.0,976.0,253.0,100.0
27.35,0.0,0.0,0.0,0.0,0.0,982.0,249.0,100.0
27.31,0.0,0.0,0.0,0.0,0.0,973.0,246.0,100.0
27.35,0.0,0.0,0.0,0.0,0.0,973.0,250.0,100.0
27.41,0.0,0.0,0.0,0.0,0.0,980.0,247.0,100.0
27.35,0.0,0.0,0.0,0.0,0.0,1125.0,247.0,100.0
27.35,0.0,0.0,0.0,0.0,0.0,976.0,245.0,100.0
27.35,0.0,0.0,0.0,0.0,0.0,971.0,246.0,100.0
27.31,0.0,0.0,0.0,0.0,0.0,992.0,245.0,100.0
27.31,0.0,0.0,0.0,0.0,0.0,967.0,250.0,100.0
27.31,0.0,0.0,0.0,0.0,0.0,961.0,248.0,100.0
27.31,0.0,0.0,0.0,0.0,0.0,960.0,251.0,100.0
27.31,0.0,0.0,0.0,0.0,0.0,1023.0,243.0,100.0
27.41,0.0,0.0,0.0,0.0,0.0,958.0,243.0,100.0
27.31,0.0,0.0,0.0,0.0,0.0,960.0,247.0,100.0
27.35,0.0,0.0,0.0,0.0,0.0,916.0,246.0,100.0
27.31,0.0,0.0,0.0,0.0,0.0,959.0,242.0,100.0
27.31,0.0,0.0,0.0,0.0,0.0,963.0,251.0,100.0
27.31,0.0,0.0,0.0,0.0,0.0,949.0,242.0,100.0
27.35,0.0,0.0,0.0,0.0,0.0,956.0,239.0,100.0
27.31,0.0,0.0,0.0,0.0,0.0,909.0,237.0,100.0
27.41,0.0,0.0,0.0,0.0,0.0,940.0,262.0,100.0
27.35,0.0,0.0,0.0,0.0,0.0,939.0,258.0,100.0
27.35,0.0,0.0,0.0,0.0,0.0,924.0,254.0,100.0
27.29,0.0,0.0,0.0,0.0,0.0,922.0,253.0,100.0
27.31,0.0,0.0,0.0,0.0,0.0,914.0,261.0,100.0
27.41,0.0,0.0,0.0,0.0,0.0,918.0,252.0,100.0
27.43,0.0,0.0,0.0,0.0,0.0,926.0,256.0,100.0
27.43,0.0,0.0,0.0,0.0,0.0,930.0,258.0,100.0
27.49,0.0,0.0,0.0,0.0,0.0,934.0,264.0,100.0
27.43,0.0,0.0,0.0,0.0,0.0,931.0,256.0,100.0
27.43,0.0,0.0,0.0,0.0,0.0,927.0,258.0,100.0
27.41,0.0,0.0,0.0,0.0,0.0,930.0,256.0,100.0
27.43,0.0,0.0,0.0,0.0,0.0,931.0,265.0,100.0
27.35,0.0,0.0,0.0,0.0,0.0,840.0,262.0,100.0
27.37,0.0,0.0,0.0,0.0,0.0,928.0,253.0,100.0
27.41,0.0,0.0,0.0,0.0,0.0,923.0,262.0,100.0
27.43,0.0,0.0,0.0,0.0,0.0,926.0,254.0,100.0
27.41,0.0,0.0,0.0,0.0,0.0,930.0,262.0,100.0
27.41,0.0,0.0,0.0,0.0,0.0,930.0,256.0,100.0
27.43,0.0,0.0,0.0,0.0,0.0,931.0,259.0,100.0
27.35,0.0,0.0,0.0,0.0,0.0,928.0,260.0,100.0
27.41,0.0,0.0,0.0,0.0,0.0,920.0,255.0,100.0
27.41,0.0,0.0,0.0,0.0,0.0,935.0,258.0,100.0
27.47,0.0,0.0,0.0,0.0,0.0,929.0,257.0,100.0
27.47,0.0,0.0,0.0,0.0,0.0,930.0,261.0,100.0
27.43,0.0,0.0,0.0,0.0,0.0,919.0,262.0,100.0
27.43,0.0,0.0,0.0,0.0,0.0,921.0,260.0,100.0
27.41,0.0,0.0,0.0,0.0,0.0,928.0,260.0,100.0
27.41,0.0,0.0,0.0,0.0,0.0,933.0,263.0,100.0
27.49,0.0,0.0,0.0,0.0,0.0,926.0,257.0,100.0
27.53,0.0,0.0,0.0,0.0,0.0,914.0,257.0,100.0
27.49,0.0,0.0,0.0,0.0,0.0,925.0,250.0,15.0
27.29,0.0,0.0,0.0,0.0,0.0,0.0,0.0,15.0
27.53,0.0,0.0,0.0,0.0,0.0,0.0,0.0,15.0
27.55,0.0,0.0,0.0,0.0,0.0,0.0,0.0,15.0
27.49,0.0,0.0,0.0,0.0,0.0,0.0,0.0,15.0
27.67,0.0,0.0,0.0,0.0,0.0,0.0,0.0,15.0
27.75,0.0,0.0,0.0,0.0,0.0,0.0,0.0,15.0
27.81,0.0,0.0,0.0,0.0,0.0,0.0,0.0,15.0
27.85,0.0,0.0,0.0,0.0,0.0,0.0,0.0,15.0
27.55,0.0,0.0,0.0,0.0,0.0,0.0,0.0,15.0
27.49,0.0,0.0,0.0,0.0,0.0,0.0,0.0,15.0
27.49,0.0,0.0,0.0,0.0,0.0,0.0,0.0,15.0
27.59,0.0,0.0,0.0,0.0,0.0,0.0,0.0,15.0
27.61,0.0,0.0,0.0,0.0,0.0,0.0,0.0,15.0
27.63,0.0,0.0,0.0,0.0,0.0,0.0,0.0,15.0
27.63,0.0,0.0,0.0,0.0,0.0,0.0,0.0,15.0
27.63,0.0,0.0,0.0,0.0,0.0,0.0,0.0,15.0
27.67,0.0,0.0,0.0,0.0,0.0,0.0,0.0,15.0
27.61,0.0,0.0,0.0,0.0,0.0,0.0,0.0,15.0
27.63,0.0,0.0,0.0,0.0,0.0,0.0,0.0,15.0
27.67,0.0,0.0,0.0,0.0,0.0,0.0,0.0,15.0
27.69,0.0,0.0,0.0,0.0,0.0,0.0,0.0,15.0
27.61,0.0,0.0,0.0,0.0,0.0,0.0,0.0,15.0
27.67,0.0,0.0,0.0,0.0,0.0,0.0,0.0,15.0
27.61,0.0,0.0,0.0,0.0,0.0,0.0,0.0,15.0
27.63,0.0,0.0,0.0,0.0,0.0,0.0,0.0,15.0
27.61,0.0,0.0,0.0,0.0,0.0,0.0,0.0,15.0
27.59,0.0,0.0,0.0,0.0,0.0,0.0,0.0,15.0
27.55,0.0,0.0,0.0,0.0,0.0,0.0,0.0,15.0
27.49,0.0,0.0,0.0,0.0,0.0,0.0,0.0,15.0
27.37,0.0,0.0,0.0,0.0,0.0,0.0,0.0,15.0
27.41,0.0,0.0,0.0,0.0,0.0,0.0,0.0,15.0
27.37,0.0,0.0,0.0,0.0,0.0,0.0,0.0,15.0
27.47,0.0,0.0,0.0,0.0,0.0,0.0,0.0,15.0
27.55,0.0,0.0,0.0,0.0,0.0,0.0,0.0,15.0
27.55,0.0,0.0,0.0,0.0,0.0,0.0,0.0,15.0
27.53,0.0,0.0,0.0,0.0,0.0,0.0,0.0,15.0
27.55,0.0,0.0,0.0,0.0,0.0,0.0,0.0,15.0
27.49,0.0,0.0,0.0,0.0,0.0,0.0,0.0,15.0
27.55,0.0,0.0,0.0,0.0,0.0,0.0,0.0,15.0
27.47,0.0,0.0,0.0,0.0,0.0,0.0,0.0,15.0
27.49,0.0,0.0,0.0,0.0,0.0,0.0,0.0,15.0
27.49,0.0,0.0,0.0,0.0,0.0,0.0,0.0,15.0
27.55,0.0,0.0,0.0,0.0,0.0,0.0,0.0,15.0
27.61,0.0,0.0,0.0,0.0,0.0,0.0,0.0,15.0
27.61,0.0,0.0,0.0,0.0,0.0,0.0,0.0,15.0
27.69,0.0,0.0,0.0,0.0,0.0,0.0,0.0,15.0
27.61,0.0,0.0,0.0,0.0,0.0,0.0,0.0,15.0
27.47,0.0,0.0,0.0,0.0,0.0,0.0,0.0,15.0
27.29,0.0,0.0,0.0,0.0,0.0,0.0,0.0,15.0
26.61,0.0,0.0,0.0,0.0,0.0,0.0,0.0,15.0
26.43,0.0,0.0,0.0,0.0,0.0,0.0,0.0,15.0
26.47,0.0,0.0,0.0,0.0,0.0,0.0,0.0,20.0
26.43,0.0,0.0,0.0,0.0,0.0,0.0,0.0,30.0
26.53,0.0,0.0,0.0,0.0,0.0,0.0,0.0,40.0
26.65,0.0,0.0,0.0,0.0,0.0,0.0,0.0,49.0
26.67,0.0,0.0,0.0,0.0,0.0,0.0,0.0,59.0
26.73,0.0,0.0,0.0,0.0,0.0,0.0,0.0,59.0
26.87,0.0,0.0,0.0,0.0,0.0,0.0,0.0,63.0
26.83,0.0,0.0,0.0,0.0,0.0,0.0,0.0,73.0
26.83,0.0,21.0,0.0,0.0,583.0,0.0,1329.0,84.0
26.79,0.0,64.0,0.0,0.0,537.0,0.0,1974.0,93.0
26.67,0.0,84.0,0.0,0.0,466.0,0.0,1902.0,100.0
26.85,0.0,246.0,0.0,0.0,193.0,0.0,1840.0,100.0
26.79,0.0,341.0,0.0,0.0,0.0,0.0,1742.0,100.0
26.55,0.0,368.0,0.0,0.0,0.0,0.0,2104.0,100.0
26.43,0.0,0.0,0.0,0.0,0.0,0.0,1310.0,100.0
26.55,0.0,0.0,0.0,0.0,0.0,0.0,1095.0,100.0
26.79,0.0,0.0,0.0,0.0,0.0,0.0,1236.0,100.0
26.85,0.0,369.0,0.0,0.0,0.0,0.0,1538.0,100.0
26.87,0.0,543.0,0.0,0.0,0.0,0.0,1758.0,100.0
26.79,0.0,605.0,0.0,0.0,0.0,0.0,1867.0,100.0
26.85,0.0,592.0,0.0,0.0,0.0,0.0,1854.0,100.0
26.77,0.0,0.0,0.0,0.0,0.0,0.0,1277.0,100.0
26.67,0.0,0.0,0.0,0.0,0.0,0.0,705.0,100.0
26.67,0.0,0.0,0.0,0.0,0.0,0.0,654.0,100.0
26.71,0.0,0.0,0.0,0.0,0.0,0.0,1353.0,100.0
26.77,0.0,0.0,0.0,0.0,407.0,0.0,1732.0,100.0
26.85,0.0,0.0,0.0,0.0,770.0,0.0,1826.0,100.0
26.91,0.0,0.0,0.0,0.0,1011.0,0.0,1875.0,100.0
27.11,0.0,0.0,0.0,0.0,1123.0,0.0,0.0,100.0
27.87,0.0,0.0,0.0,0.0,0.0,0.0,0.0,100.0
27.55,0.0,0.0,0.0,0.0,0.0,0.0,0.0,100.0
27.59,0.0,0.0,0.0,0.0,0.0,0.0,0.0,100.0
27.61,0.0,0.0,0.0,0.0,0.0,0.0,0.0,100.0
27.61,0.0,0.0,0.0,0.0,0.0,0.0,0.0,100.0
27.63,0.0,0.0,0.0,0.0,0.0,0.0,0.0,100.0
27.61,0.0,0.0,0.0,0.0,0.0,0.0,0.0,100.0
27.61,0.0,0.0,0.0,0.0,0.0,0.0,0.0,100.0
27.61,0.0,0.0,0.0,0.0,0.0,0.0,0.0,100.0
27.63,0.0,0.0,0.0,0.0,0.0,0.0,0.0,100.0
27.61,0.0,0.0,0.0,0.0,0.0,0.0,0.0,100.0
27.63,0.0,0.0,0.0,0.0,0.0,0.0,0.0,100.0
27.55,0.0,0.0,0.0,0.0,0.0,0.0,0.0,100.0
27.59,0.0,0.0,0.0,0.0,0.0,0.0,0.0,100.0
27.63,0.0,0.0,0.0,0.0,0.0,0.0,0.0,100.0
27.67,0.0,0.0,0.0,0.0,0.0,0.0,0.0,100.0
27.67,0.0,0.0,0.0,0.0,0.0,0.0,0.0,100.0
27.61,0.0,0.0,0.0,0.0,0.0,0.0,0.0,100.0
27.67,0.0,0.0,0.0,0.0,0.0,0.0,0.0,100.0
27.63,0.0,0.0,0.0,0.0,0.0,0.0,0.0,100.0
27.75,0.0,0.0,0.0,0.0,0.0,0.0,0.0,100.0
27.61,0.0,0.0,0.0,0.0,0.0,0.0,0.0,100.0
27.63,0.0,0.0,0.0,0.0,0.0,0.0,0.0,100.0
27.55,0.0,0.0,0.0,0.0,0.0,0.0,0.0,100.0
27.59,0.0,0.0,0.0,0.0,0.0,0.0,0.0,100.0
27.55,0.0,0.0,0.0,0.0,0.0,0.0,0.0,100.0
27.55,0.0,0.0,0.0,0.0,0.0,0.0,0.0,100.0
27.55,0.0,0.0,0.0,0.0,0.0,0.0,0.0,100.0
27.55,0.0,0.0,0.0,0.0,0.0,0.0,0.0,100.0
27.55,0.0,0.0,0.0,0.0,0.0,0.0,0.0,100.0
27.53,0.0,0.0,0.0,0.0,0.0,0.0,0.0,100.0
27.53,0.0,0.0,0.0,0.0,0.0,0.0,0.0,100.0
27.55,0.0,0.0,0.0,0.0,0.0,0.0,0.0,100.0
27.53,0.0,0.0,0.0,0.0,0.0,0.0,0.0,100.0
27.49,0.0,0.0,0.0,0.0,0.0,0.0,0.0,100.0
27.53,0.0,0.0,0.0,0.0,0.0,0.0,0.0,100.0
27.55,0.0,0.0,0.0,0.0,0.0,0.0,0.0,100.0
27.55,0.0,0.0,0.0,0.0,0.0,0.0,0.0,100.0
27.55,0.0,0.0,0.0,0.0,0.0,0.0,0.0,100.0
27.55,0.0,0.0,0.0,0.0,0.0,0.0,0.0,100.0
27.53,0.0,0.0,0.0,0.0,0.0,0.0,0.0,100.0
27.53,0.0,0.0,0.0,0.0,0.0,0.0,0.0,100.0
27.55,0.0,0.0,0.0,0.0,0.0,0.0,0.0,100.0
27.55,0.0,0.0,0.0,0.0,0.0,0.0,0.0,100.0
27.59,0.0,0.0,0.0,0.0,0.0,0.0,0.0,100.0
27.55,0.0,0.0,0.0,0.0,0.0,0.0,0.0,100.0
27.55,0.0,0.0,0.0,0.0,0.0,0.0,0.0,100.0
27.59,0.0,0.0,0.0,0.0,0.0,0.0,0.0,100.0
27.59,0.0,0.0,0.0,0.0,0.0,0.0,0.0,100.0
27.55,0.0,0.0,0.0,0.0,0.0,0.0,0.0,100.0
27.61,0.0,0.0,0.0,0.0,0.0,0.0,0.0,100.0
27.55,0.0,0.0,0.0,0.0,0.0,0.0,0.0,100.0
27.55,0.0,0.0,0.0,0.0,0.0,0.0,0.0,100.0
27.61,0.0,0.0,0.0,0.0,0.0,0.0,0.0,100.0
27.59,0.0,0.0,0.0,0.0,0.0,0.0,0.0,100.0
27.61,0.0,0.0,0.0,0.0,0.0,0.0,0.0,100.0
27.63,0.0,0.0,0.0,0.0,0.0,0.0,0.0,100.0
27.69,0.0,0.0,0.0,0.0,0.0,0.0,0.0,100.0
27.63,0.0,0.0,0.0,0.0,0.0,0.0,0.0,100.0
27.63,0.0,0.0,0.0,0.0,0.0,0.0,0.0,100.0
27.67,0.0,0.0,0.0,0.0,0.0,0.0,0.0,100.0
27.79,0.0,0.0,0.0,0.0,0.0,0.0,0.0,100.0
27.69,0.0,0.0,0.0,0.0,0.0,0.0,0.0,100.0
27.75,0.0,0.0,0.0,0.0,0.0,0.0,0.0,100.0
27.67,0.0,0.0,0.0,0.0,0.0,0.0,0.0,100.0
27.67,0.0,0.0,0.0,0.0,0.0,0.0,0.0,100.0
27.69,0.0,0.0,0.0,0.0,0.0,0.0,0.0,15.0
27.47,0.0,0.0,0.0,0.0,0.0,0.0,0.0,15.0
27.43,0.0,0.0,0.0,0.0,0.0,0.0,0.0,15.0
27.47,0.0,0.0,0.0,0.0,0.0,0.0,0.0,15.0
27.61,0.0,0.0,0.0,0.0,0.0,0.0,0.0,15.0
27.61,0.0,0.0,0.0,0.0,0.0,0.0,0.0,15.0
27.87,0.0,0.0,0.0,0.0,0.0,0.0,0.0,15.0
27.91,0.0,0.0,0.0,0.0,0.0,0.0,0.0,15.0
27.91,0.0,0.0,0.0,0.0,0.0,0.0,0.0,15.0
27.99,0.0,0.0,0.0,0.0,0.0,0.0,0.0,15.0
28.05,0.0,0.0,0.0,0.0,0.0,0.0,0.0,15.0
27.99,0.0,0.0,0.0,0.0,0.0,0.0,0.0,15.0
28.01,0.0,0.0,0.0,0.0,0.0,0.0,0.0,15.0
28.01,0.0,0.0,0.0,0.0,0.0,0.0,0.0,15.0
28.07,0.0,0.0,0.0,0.0,0.0,0.0,0.0,15.0
28.11,0.0,0.0,0.0,0.0,0.0,0.0,0.0,15.0
27.91,0.0,0.0,0.0,0.0,0.0,0.0,0.0,15.0
27.91,0.0,0.0,0.0,0.0,0.0,0.0,0.0,15.0
27.93,0.0,0.0,0.0,0.0,0.0,0.0,0.0,15.0
27.95,0.0,0.0,0.0,0.0,0.0,0.0,0.0,15.0
28.13,0.0,0.0,0.0,0.0,0.0,0.0,0.0,15.0
28.17,0.0,0.0,0.0,0.0,0.0,0.0,0.0,15.0
28.13,0.0,0.0,0.0,0.0,0.0,0.0,0.0,15.0
28.17,0.0,0.0,0.0,0.0,0.0,0.0,0.0,15.0
27.99,0.0,0.0,0.0,0.0,0.0,0.0,0.0,15.0
27.95,0.0,0.0,0.0,0.0,0.0,0.0,0.0,15.0
27.95,0.0,0.0,0.0,0.0,0.0,0.0,0.0,15.0
27.99,0.0,0.0,0.0,0.0,0.0,0.0,0.0,15.0
27.95,0.0,0.0,0.0,0.0,0.0,0.0,0.0,15.0
27.85,0.0,0.0,0.0,0.0,0.0,0.0,0.0,15.0
27.79,0.0,0.0,0.0,0.0,0.0,232.0,0.0,15.0
27.63,0.0,0.0,0.0,0.0,0.0,0.0,0.0,15.0
27.69,0.0,0.0,0.0,0.0,0.0,0.0,0.0,15.0
27.79,0.0,0.0,0.0,0.0,0.0,0.0,0.0,15.0
28.51,0.0,0.0,0.0,0.0,0.0,0.0,0.0,15.0
28.65,0.0,0.0,0.0,0.0,0.0,0.0,0.0,15.0
28.71,0.0,0.0,0.0,0.0,0.0,0.0,0.0,15.0
28.65,0.0,0.0,0.0,0.0,0.0,0.0,0.0,15.0
28.71,0.0,0.0,0.0,0.0,0.0,0.0,0.0,15.0
28.77,0.0,0.0,0.0,0.0,0.0,0.0,0.0,15.0
28.77,0.0,0.0,0.0,0.0,0.0,0.0,0.0,15.0
28.71,0.0,0.0,0.0,0.0,0.0,0.0,0.0,15.0
28.43,0.0,0.0,0.0,0.0,0.0,0.0,0.0,15.0
28.13,0.0,0.0,0.0,0.0,0.0,0.0,0.0,15.0
28.05,0.0,0.0,0.0,0.0,0.0,0.0,0.0,15.0
28.05,0.0,0.0,0.0,0.0,0.0,0.0,0.0,15.0
29.57,0.0,0.0,0.0,0.0,0.0,0.0,0.0,15.0
36.89,0.0,0.0,0.0,0.0,0.0,0.0,0.0,15.0
41.09,0.0,0.0,0.0,0.0,0.0,0.0,0.0,15.0
49.17,0.0,0.0,0.0,0.0,0.0,0.0,0.0,15.0
49.99,0.0,0.0,0.0,0.0,0.0,0.0,0.0,15.0
49.93,0.0,0.0,0.0,0.0,0.0,0.0,0.0,15.0
50.01,0.0,0.0,0.0,0.0,0.0,0.0,0.0,22.0
50.01,0.0,0.0,0.0,0.0,0.0,0.0,0.0,32.0
50.07,0.0,0.0,0.0,0.0,0.0,0.0,0.0,42.0
50.11,0.0,0.0,0.0,0.0,0.0,0.0,0.0,53.0
50.11,0.0,0.0,0.0,0.0,0.0,0.0,70.0,63.0
49.87,0.0,576.0,0.0,0.0,555.0,0.0,2806.0,72.0
49.69,0.0,585.0,0.0,0.0,509.0,0.0,2988.0,82.0
49.61,0.0,731.0,0.0,0.0,419.0,0.0,2976.0,91.0
49.51,0.0,775.0,0.0,0.0,385.0,0.0,3047.0,100.0
49.45,0.0,782.0,0.0,0.0,386.0,0.0,3061.0,100.0
49.61,0.0,788.0,0.0,0.0,400.0,0.0,3071.0,100.0
49.73,0.0,784.0,0.0,0.0,362.0,0.0,3064.0,100.0
49.71,0.0,788.0,0.0,0.0,403.0,0.0,3068.0,100.0
49.77,0.0,794.0,0.0,0.0,400.0,0.0,3061.0,100.0
49.61,0.0,793.0,0.0,0.0,391.0,0.0,3063.0,100.0
49.59,0.0,775.0,0.0,0.0,336.0,0.0,2931.0,100.0
49.57,0.0,767.0,0.0,0.0,386.0,0.0,2734.0,100.0
49.53,0.0,773.0,0.0,0.0,463.0,0.0,2738.0,100.0
49.45,0.0,781.0,0.0,0.0,528.0,0.0,2736.0,100.0
49.33,0.0,775.0,0.0,0.0,511.0,0.0,2763.0,100.0
49.29,0.0,782.0,0.0,0.0,495.0,0.0,2764.0,100.0
49.29,0.0,778.0,0.0,0.0,506.0,0.0,2760.0,100.0
49.31,0.0,880.0,0.0,0.0,498.0,0.0,2794.0,100.0
49.33,0.0,787.0,0.0,0.0,548.0,0.0,2744.0,100.0
49.45,0.0,785.0,0.0,0.0,580.0,0.0,2757.0,100.0
49.37,0.0,784.0,0.0,0.0,593.0,0.0,2775.0,100.0
49.33,0.0,777.0,0.0,0.0,526.0,0.0,2766.0,100.0
49.39,0.0,781.0,0.0,0.0,486.0,0.0,2806.0,100.0
49.37,0.0,753.0,0.0,0.0,596.0,0.0,2816.0,100.0
49.43,0.0,764.0,0.0,0.0,534.0,0.0,2818.0,100.0
49.43,0.0,784.0,0.0,0.0,526.0,0.0,2817.0,100.0
49.43,0.0,777.0,0.0,0.0,540.0,0.0,2817.0,100.0
49.51,0.0,1059.0,0.0,0.0,540.0,0.0,2814.0,100.0
49.37,0.0,785.0,0.0,0.0,548.0,0.0,2821.0,100.0
49.39,0.0,772.0,0.0,0.0,497.0,0.0,2818.0,100.0
49.31,0.0,781.0,0.0,0.0,551.0,0.0,2821.0,100.0
49.37,0.0,784.0,0.0,0.0,547.0,0.0,2824.0,100.0
49.31,0.0,778.0,0.0,0.0,543.0,0.0,2830.0,100.0
49.31,0.0,800.0,0.0,0.0,548.0,0.0,2822.0,100.0
49.31,0.0,769.0,0.0,0.0,304.0,0.0,2790.0,100.0
49.29,0.0,757.0,0.0,0.0,330.0,0.0,2860.0,100.0
49.31,0.0,758.0,0.0,0.0,342.0,0.0,2869.0,100.0
49.29,0.0,764.0,0.0,0.0,358.0,0.0,2868.0,100.0
49.29,0.0,735.0,0.0,0.0,381.0,0.0,2864.0,100.0
49.27,0.0,762.0,0.0,0.0,280.0,0.0,2872.0,100.0
49.27,0.0,743.0,0.0,0.0,313.0,0.0,2899.0,100.0
49.31,0.0,739.0,0.0,0.0,295.0,0.0,2908.0,100.0
49.29,0.0,752.0,0.0,0.0,291.0,0.0,2875.0,100.0
49.31,0.0,702.0,0.0,0.0,272.0,0.0,2862.0,100.0
49.29,0.0,675.0,0.0,0.0,287.0,0.0,2896.0,100.0
49.33,0.0,683.0,0.0,0.0,289.0,0.0,2903.0,100.0
49.39,0.0,693.0,0.0,0.0,285.0,0.0,2908.0,100.0
49.39,0.0,688.0,0.0,0.0,270.0,0.0,2925.0,100.0
49.39,0.0,656.0,0.0,0.0,262.0,0.0,2951.0,100.0
49.37,0.0,605.0,0.0,0.0,217.0,0.0,2972.0,100.0
49.37,0.0,611.0,0.0,0.0,246.0,0.0,2990.0,100.0
49.37,0.0,609.0,0.0,0.0,236.0,0.0,2986.0,100.0
49.33,0.0,588.0,0.0,0.0,235.0,0.0,2997.0,100.0
49.43,0.0,562.0,0.0,0.0,128.0,0.0,2998.0,100.0
49.39,0.0,589.0,0.0,0.0,241.0,0.0,3014.0,100.0
49.41,0.0,585.0,0.0,0.0,237.0,0.0,3024.0,100.0
49.45,0.0,576.0,0.0,0.0,244.0,0.0,3022.0,100.0
49.41,0.0,497.0,0.0,0.0,229.0,0.0,3055.0,100.0
49.33,0.0,412.0,0.0,0.0,267.0,0.0,3077.0,100.0
49.39,0.0,416.0,0.0,0.0,245.0,0.0,3071.0,100.0
49.33,0.0,422.0,0.0,0.0,255.0,0.0,3081.0,100.0
49.31,0.0,439.0,0.0,0.0,252.0,0.0,3079.0,100.0
49.29,0.0,433.0,0.0,0.0,256.0,0.0,3078.0,100.0
49.29,0.0,432.0,0.0,0.0,254.0,0.0,3080.0,100.0
49.31,0.0,425.0,0.0,0.0,260.0,0.0,3094.0,100.0
49.33,0.0,415.0,0.0,0.0,322.0,0.0,3086.0,100.0
49.33,0.0,432.0,0.0,0.0,256.0,0.0,3087.0,100.0
49.33,0.0,414.0,0.0,0.0,259.0,0.0,3098.0,100.0
49.29,0.0,426.0,0.0,0.0,267.0,0.0,3086.0,100.0
49.33,0.0,365.0,0.0,0.0,267.0,0.0,3093.0,100.0
49.27,0.0,434.0,0.0,0.0,261.0,0.0,3102.0,100.0
49.27,0.0,432.0,0.0,0.0,267.0,0.0,3099.0,100.0
49.37,0.0,416.0,0.0,0.0,265.0,0.0,3099.0,100.0
49.33,0.0,435.0,0.0,0.0,257.0,0.0,3102.0,100.0
49.33,0.0,414.0,0.0,0.0,256.0,0.0,3102.0,100.0
49.37,0.0,435.0,0.0,0.0,277.0,0.0,3107.0,100.0
49.25,0.0,436.0,0.0,0.0,267.0,0.0,3106.0,100.0
49.19,0.0,435.0,0.0,0.0,267.0,0.0,3098.0,100.0
49.17,0.0,420.0,0.0,0.0,258.0,0.0,3109.0,100.0
49.19,0.0,433.0,0.0,0.0,259.0,0.0,3109.0,100.0
49.25,0.0,435.0,0.0,0.0,265.0,0.0,3117.0,100.0
49.25,0.0,431.0,0.0,0.0,260.0,0.0,3114.0,100.0
49.25,0.0,438.0,0.0,0.0,270.0,0.0,3114.0,100.0
49.19,0.0,432.0,0.0,0.0,272.0,0.0,3112.0,100.0
49.19,0.0,400.0,0.0,0.0,266.0,0.0,3118.0,100.0
49.17,0.0,410.0,0.0,0.0,257.0,0.0,3122.0,100.0
49.15,0.0,437.0,0.0,0.0,272.0,0.0,3120.0,100.0
49.15,0.0,0.0,0.0,0.0,0.0,0.0,2111.0,15.0
49.23,0.0,0.0,0.0,0.0,0.0,0.0,33.0,15.0
31.47,0.0,0.0,0.0,0.0,0.0,0.0,0.0,15.0
28.25,0.0,0.0,0.0,0.0,0.0,0.0,0.0,15.0
28.11,0.0,0.0,0.0,0.0,0.0,0.0,0.0,15.0
27.99,0.0,0.0,0.0,0.0,0.0,0.0,0.0,15.0
27.99,0.0,0.0,0.0,0.0,0.0,0.0,0.0,15.0
27.99,0.0,0.0,0.0,0.0,0.0,0.0,0.0,15.0
28.13,0.0,0.0,0.0,0.0,0.0,0.0,0.0,15.0
27.99,0.0,0.0,0.0,0.0,0.0,0.0,0.0,15.0
27.79,0.0,0.0,0.0,0.0,0.0,0.0,0.0,15.0
27.85,0.0,0.0,0.0,0.0,0.0,0.0,0.0,15.0
27.87,0.0,0.0,0.0,0.0,0.0,0.0,0.0,15.0
27.79,0.0,0.0,0.0,0.0,0.0,0.0,0.0,15.0
27.91,0.0,0.0,0.0,0.0,0.0,0.0,0.0,15.0
27.93,0.0,0.0,0.0,0.0,0.0,0.0,0.0,15.0
27.91,0.0,0.0,0.0,0.0,0.0,0.0,0.0,15.0
27.95,0.0,0.0,0.0,0.0,0.0,0.0,0.0,15.0
27.93,0.0,0.0,0.0,0.0,0.0,0.0,0.0,15.0
27.87,0.0,0.0,0.0,0.0,0.0,0.0,0.0,15.0
27.91,0.0,0.0,0.0,0.0,0.0,0.0,0.0,15.0
27.87,0.0,0.0,0.0,0.0,0.0,0.0,0.0,15.0
27.95,0.0,0.0,0.0,0.0,0.0,0.0,0.0,15.0
27.95,0.0,0.0,0.0,0.0,0.0,0.0,0.0,15.0
27.93,0.0,0.0,0.0,0.0,0.0,0.0,0.0,15.0
27.91,0.0,0.0,0.0,0.0,0.0,0.0,0.0,15.0
27.93,0.0,0.0,0.0,0.0,0.0,0.0,0.0,15.0
27.95,0.0,0.0,0.0,0.0,0.0,0.0,0.0,15.0
27.85,0.0,0.0,0.0,0.0,0.0,0.0,0.0,15.0
27.85,0.0,0.0,0.0,0.0,0.0,0.0,0.0,15.0
27.87,0.0,0.0,0.0,0.0,0.0,0.0,0.0,15.0
27.91,0.0,0.0,208.0,0.0,0.0,0.0,0.0,15.0
27.91,0.0,0.0,0.0,0.0,0.0,0.0,0.0,15.0
27.87,0.0,0.0,0.0,0.0,0.0,0.0,0.0,15.0
27.81,0.0,0.0,0.0,0.0,0.0,0.0,0.0,15.0
27.79,0.0,0.0,0.0,0.0,0.0,0.0,0.0,15.0
27.85,0.0,0.0,0.0,0.0,0.0,0.0,0.0,15.0
27.85,0.0,0.0,0.0,0.0,0.0,0.0,0.0,15.0
27.75,0.0,0.0,0.0,0.0,0.0,0.0,0.0,15.0
27.81,0.0,0.0,0.0,0.0,0.0,0.0,0.0,15.0
27.73,0.0,0.0,0.0,0.0,0.0,0.0,0.0,15.0
27.81,0.0,0.0,0.0,0.0,0.0,0.0,0.0,15.0
27.79,0.0,0.0,0.0,0.0,0.0,0.0,0.0,15.0
27.79,0.0,0.0,0.0,0.0,0.0,0.0,0.0,15.0
27.81,16.0,0.0,0.0,0.0,0.0,0.0,0.0,15.0
27.87,0.0,0.0,0.0,0.0,0.0,0.0,0.0,15.0
27.79,0.0,0.0,0.0,0.0,0.0,0.0,0.0,15.0
27.85,0.0,0.0,0.0,0.0,0.0,0.0,0.0,15.0
27.85,0.0,0.0,0.0,0.0,0.0,0.0,0.0,15.0
28.89,0.0,0.0,0.0,0.0,0.0,0.0,0.0,15.0
29.55,0.0,0.0,0.0,0.0,0.0,0.0,0.0,15.0
28.95,0.0,0.0,0.0,0.0,0.0,0.0,0.0,19.0
28.95,0.0,0.0,0.0,0.0,0.0,0.0,0.0,28.0
28.71,0.0,0.0,0.0,0.0,0.0,0.0,0.0,38.0
28.83,0.0,0.0,0.0,0.0,0.0,0.0,0.0,47.0
28.89,0.0,0.0,0.0,0.0,0.0,0.0,0.0,56.0
28.97,0.0,0.0,0.0,0.0,0.0,0.0,0.0,64.0
28.85,0.0,0.0,0.0,0.0,0.0,0.0,0.0,74.0
28.63,0.0,0.0,0.0,0.0,0.0,0.0,1117.0,84.0
28.59,0.0,0.0,0.0,0.0,0.0,0.0,2222.0,87.0
28.59,80.0,0.0,0.0,0.0,0.0,0.0,2252.0,87.0
28.63,0.0,0.0,0.0,0.0,0.0,0.0,2273.0,87.0
28.59,0.0,0.0,0.0,0.0,0.0,0.0,2294.0,87.0
28.51,0.0,0.0,0.0,0.0,0.0,0.0,2317.0,87.0
28.53,0.0,0.0,0.0,0.0,0.0,0.0,2338.0,87.0
28.51,74.0,0.0,0.0,0.0,0.0,0.0,2334.0,87.0
28.45,0.0,0.0,0.0,0.0,0.0,0.0,2338.0,87.0
28.47,0.0,0.0,0.0,0.0,0.0,0.0,2213.0,87.0
28.53,0.0,0.0,0.0,0.0,0.0,0.0,2076.0,87.0
28.45,0.0,0.0,0.0,0.0,0.0,0.0,2079.0,87.0
28.45,0.0,0.0,0.0,0.0,0.0,0.0,2071.0,87.0
28.33,0.0,0.0,0.0,0.0,0.0,0.0,2080.0,87.0
28.37,0.0,0.0,0.0,0.0,0.0,0.0,2076.0,87.0
28.37,0.0,0.0,0.0,0.0,0.0,0.0,2094.0,87.0
28.45,0.0,0.0,0.0,0.0,0.0,0.0,2101.0,87.0
28.39,0.0,0.0,0.0,0.0,0.0,0.0,2115.0,87.0
28.31,0.0,0.0,0.0,0.0,0.0,0.0,2120.0,87.0
28.33,0.0,0.0,0.0,0.0,0.0,0.0,2124.0,88.0
28.31,0.0,208.0,0.0,0.0,0.0,0.0,3540.0,91.0
28.27,0.0,223.0,0.0,0.0,0.0,0.0,3495.0,91.0
28.23,0.0,190.0,0.0,0.0,0.0,0.0,3358.0,91.0
28.25,0.0,0.0,0.0,0.0,0.0,0.0,3318.0,91.0
28.27,0.0,169.0,0.0,0.0,0.0,0.0,3316.0,91.0
28.27,0.0,144.0,0.0,0.0,0.0,0.0,3324.0,93.0
28.31,0.0,670.0,0.0,0.0,0.0,0.0,3322.0,96.0
28.33,0.0,121.0,0.0,0.0,0.0,0.0,3323.0,99.0
28.27,0.0,190.0,0.0,0.0,0.0,0.0,3322.0,100.0
28.31,0.0,186.0,0.0,0.0,0.0,0.0,3325.0,100.0
28.31,0.0,189.0,0.0,0.0,0.0,0.0,3325.0,100.0
28.27,0.0,208.0,0.0,0.0,0.0,0.0,3335.0,100.0
28.33,0.0,128.0,0.0,0.0,0.0,0.0,3343.0,100.0
28.27,0.0,194.0,0.0,0.0,0.0,0.0,3334.0,100.0
28.27,0.0,0.0,0.0,0.0,0.0,0.0,3274.0,100.0
28.27,0.0,62.0,0.0,0.0,0.0,0.0,3078.0,100.0
28.27,0.0,34.0,0.0,0.0,0.0,0.0,3073.0,100.0
28.31,0.0,58.0,0.0,0.0,0.0,0.0,3078.0,100.0
28.27,0.0,25.0,0.0,0.0,0.0,0.0,3073.0,100.0
28.33,0.0,54.0,0.0,0.0,0.0,0.0,3083.0,100.0
28.31,0.0,58.0,0.0,0.0,0.0,0.0,3078.0,100.0
28.27,0.0,54.0,0.0,0.0,0.0,0.0,3084.0,100.0
28.27,0.0,61.0,0.0,0.0,0.0,0.0,3094.0,100.0
28.31,0.0,59.0,0.0,0.0,0.0,376.0,3097.0,100.0
28.27,0.0,48.0,0.0,0.0,0.0,0.0,3100.0,100.0
28.31,0.0,64.0,0.0,0.0,0.0,0.0,3093.0,100.0
28.27,0.0,51.0,0.0,0.0,0.0,0.0,3100.0,100.0
28.27,0.0,48.0,0.0,0.0,0.0,0.0,3103.0,100.0
28.25,0.0,64.0,0.0,0.0,0.0,0.0,3101.0,100.0
28.27,0.0,63.0,0.0,0.0,0.0,0.0,3104.0,100.0
28.27,0.0,64.0,0.0,0.0,0.0,0.0,3102.0,100.0
28.31,0.0,62.0,0.0,0.0,0.0,0.0,3102.0,100.0
28.25,0.0,67.0,0.0,0.0,0.0,0.0,3101.0,100.0
28.27,0.0,67.0,0.0,0.0,0.0,0.0,3105.0,100.0
28.27,0.0,62.0,0.0,0.0,0.0,0.0,3113.0,100.0
28.25,0.0,70.0,0.0,0.0,0.0,0.0,3108.0,100.0
28.27,0.0,0.0,0.0,0.0,0.0,0.0,3106.0,100.0
28.27,0.0,63.0,0.0,0.0,0.0,0.0,3117.0,100.0
28.31,0.0,58.0,0.0,0.0,0.0,0.0,3125.0,100.0
28.39,0.0,58.0,0.0,0.0,0.0,0.0,3123.0,100.0
28.43,0.0,57.0,0.0,0.0,0.0,0.0,3122.0,100.0
28.37,0.0,0.0,0.0,0.0,0.0,0.0,3121.0,100.0
28.39,0.0,61.0,0.0,0.0,0.0,0.0,3128.0,100.0
28.39,0.0,10.0,0.0,0.0,0.0,0.0,3127.0,100.0
28.33,0.0,53.0,0.0,0.0,0.0,0.0,3128.0,100.0
28.33,0.0,51.0,0.0,0.0,0.0,0.0,3127.0,100.0
28.43,0.0,46.0,0.0,0.0,0.0,0.0,3129.0,100.0
28.37,0.0,55.0,0.0,0.0,0.0,0.0,3126.0,100.0
28.39,0.0,58.0,0.0,0.0,0.0,0.0,3123.0,100.0
28.39,0.0,63.0,0.0,0.0,0.0,0.0,3135.0,100.0
28.43,0.0,61.0,0.0,0.0,0.0,0.0,3127.0,100.0
28.45,0.0,55.0,0.0,0.0,0.0,0.0,3134.0,100.0
28.39,0.0,59.0,0.0,0.0,0.0,0.0,3129.0,100.0
28.51,0.0,56.0,0.0,0.0,0.0,0.0,3133.0,100.0
28.51,0.0,60.0,0.0,0.0,0.0,0.0,3132.0,100.0
28.47,0.0,0.0,0.0,0.0,0.0,0.0,3135.0,100.0
28.45,0.0,61.0,0.0,0.0,0.0,0.0,3140.0,100.0
28.45,0.0,67.0,0.0,0.0,0.0,0.0,3140.0,100.0
28.47,0.0,59.0,0.0,0.0,0.0,0.0,3137.0,100.0
28.45,0.0,64.0,0.0,0.0,0.0,0.0,3146.0,100.0
28.45,0.0,59.0,0.0,0.0,0.0,0.0,3143.0,100.0
28.45,0.0,64.0,0.0,0.0,0.0,0.0,3142.0,100.0
28.47,0.0,62.0,0.0,0.0,0.0,0.0,3139.0,100.0
28.45,0.0,0.0,0.0,0.0,0.0,0.0,3143.0,100.0
28.51,0.0,64.0,0.0,0.0,0.0,0.0,3145.0,100.0
28.43,0.0,64.0,0.0,0.0,0.0,0.0,3126.0,100.0
28.47,0.0,66.0,0.0,0.0,0.0,0.0,3140.0,100.0
28.45,0.0,57.0,0.0,0.0,0.0,0.0,3139.0,100.0
28.45,0.0,62.0,0.0,0.0,0.0,0.0,3140.0,100.0
28.51,0.0,0.0,0.0,0.0,0.0,0.0,3141.0,15.0
28.23,0.0,0.0,0.0,0.0,0.0,0.0,0.0,15.0
27.67,0.0,0.0,0.0,0.0,0.0,0.0,0.0,15.0
27.63,0.0,0.0,0.0,0.0,0.0,0.0,0.0,15.0
27.61,0.0,0.0,0.0,0.0,0.0,0.0,0.0,15.0
27.55,0.0,0.0,0.0,0.0,0.0,0.0,0.0,15.0
27.47,0.0,0.0,0.0,0.0,0.0,0.0,0.0,15.0
27.47,0.0,0.0,0.0,0.0,0.0,0.0,0.0,15.0
27.55,0.0,0.0,0.0,0.0,0.0,0.0,0.0,15.0
27.59,0.0,0.0,0.0,0.0,0.0,0.0,0.0,15.0
27.61,0.0,0.0,0.0,0.0,0.0,0.0,0.0,15.0
27.59,0.0,0.0,0.0,0.0,0.0,0.0,0.0,15.0
27.55,0.0,0.0,0.0,0.0,0.0,0.0,0.0,15.0
27.59,0.0,0.0,0.0,0.0,0.0,0.0,0.0,15.0
27.61,0.0,0.0,0.0,0.0,0.0,0.0,0.0,15.0
27.63,0.0,0.0,0.0,0.0,0.0,0.0,0.0,15.0
27.59,0.0,0.0,0.0,0.0,0.0,0.0,0.0,15.0
27.61,0.0,0.0,0.0,0.0,0.0,0.0,0.0,15.0
27.63,0.0,0.0,0.0,0.0,0.0,0.0,0.0,15.0
27.59,0.0,0.0,0.0,0.0,0.0,0.0,0.0,15.0
27.59,0.0,0.0,0.0,0.0,0.0,0.0,0.0,15.0
