tempMLX,FSR_A1,FSR_A2,FSR_A3,FSR_B1,FSR_B2,FSR_B3,FSR_C,porcAper
0.0,0.0,0.0,0.0,0.0,0.0,0.0,0.0,15.0
0.0,0.0,0.0,0.0,0.0,0.0,0.0,0.0,15.0
27.03,0.0,0.0,0.0,0.0,0.0,0.0,0.0,15.0
27.05,0.0,0.0,0.0,0.0,0.0,0.0,0.0,15.0
27.05,0.0,0.0,0.0,0.0,0.0,0.0,0.0,15.0
27.09,0.0,0.0,0.0,0.0,0.0,0.0,0.0,15.0
27.09,0.0,0.0,0.0,0.0,0.0,0.0,0.0,15.0
27.03,0.0,0.0,0.0,0.0,0.0,0.0,0.0,15.0
27.09,0.0,0.0,0.0,0.0,0.0,0.0,0.0,15.0
27.09,0.0,0.0,0.0,0.0,0.0,0.0,0.0,15.0
27.09,0.0,0.0,0.0,0.0,0.0,0.0,0.0,15.0
26.99,0.0,0.0,0.0,0.0,0.0,0.0,0.0,15.0
27.05,0.0,0.0,0.0,0.0,0.0,0.0,0.0,15.0
27.11,0.0,0.0,0.0,0.0,0.0,0.0,0.0,15.0
27.09,0.0,0.0,0.0,0.0,0.0,0.0,0.0,15.0
27.09,0.0,0.0,0.0,0.0,0.0,0.0,0.0,15.0
27.09,0.0,0.0,0.0,0.0,0.0,0.0,0.0,15.0
27.03,0.0,0.0,0.0,0.0,0.0,0.0,0.0,15.0
27.09,0.0,0.0,0.0,0.0,0.0,0.0,0.0,15.0
27.05,0.0,0.0,0.0,0.0,0.0,0.0,0.0,15.0
27.03,0.0,0.0,0.0,0.0,0.0,0.0,0.0,15.0
26.99,0.0,0.0,0.0,0.0,0.0,0.0,0.0,15.0
27.03,0.0,0.0,0.0,0.0,0.0,0.0,0.0,15.0
26.99,0.0,0.0,0.0,0.0,0.0,0.0,0.0,15.0
26.99,0.0,0.0,0.0,0.0,0.0,0.0,0.0,15.0
26.97,0.0,0.0,0.0,0.0,0.0,0.0,0.0,15.0
27.03,0.0,0.0,0.0,0.0,0.0,0.0,0.0,15.0
26.97,0.0,0.0,0.0,0.0,0.0,0.0,0.0,15.0
26.91,0.0,0.0,0.0,0.0,0.0,0.0,0.0,15.0
26.97,0.0,0.0,0.0,0.0,0.0,0.0,0.0,15.0
27.03,0.0,0.0,0.0,0.0,0.0,0.0,0.0,15.0
27.03,0.0,0.0,0.0,0.0,0.0,0.0,0.0,15.0
26.93,0.0,0.0,0.0,0.0,0.0,0.0,0.0,15.0
26.99,0.0,0.0,0.0,0.0,0.0,0.0,0.0,15.0
26.99,0.0,0.0,0.0,0.0,0.0,0.0,0.0,15.0
26.99,0.0,0.0,0.0,0.0,0.0,0.0,0.0,15.0
27.03,0.0,0.0,0.0,0.0,0.0,0.0,0.0,15.0
26.99,0.0,0.0,0.0,0.0,0.0,0.0,0.0,15.0
26.93,0.0,0.0,0.0,0.0,0.0,0.0,0.0,15.0
26.87,0.0,0.0,0.0,0.0,0.0,0.0,0.0,15.0
26.87,0.0,0.0,0.0,0.0,0.0,0.0,0.0,15.0
26.99,0.0,0.0,0.0,0.0,0.0,0.0,0.0,15.0
26.93,0.0,0.0,0.0,0.0,0.0,0.0,0.0,15.0
26.93,0.0,0.0,0.0,0.0,0.0,0.0,0.0,15.0
26.93,0.0,0.0,0.0,0.0,0.0,0.0,0.0,15.0
26.99,0.0,0.0,0.0,0.0,0.0,0.0,0.0,15.0
27.03,0.0,0.0,0.0,0.0,0.0,0.0,0.0,15.0
26.97,0.0,0.0,0.0,0.0,0.0,0.0,0.0,15.0
26.97,0.0,0.0,0.0,0.0,0.0,0.0,0.0,15.0
26.99,0.0,0.0,0.0,0.0,0.0,0.0,0.0,15.0
26.91,0.0,0.0,0.0,0.0,0.0,0.0,0.0,15.0
26.93,0.0,0.0,0.0,0.0,0.0,0.0,0.0,15.0
26.93,0.0,0.0,0.0,0.0,0.0,0.0,0.0,15.0
27.03,0.0,0.0,0.0,0.0,0.0,0.0,0.0,15.0
26.91,0.0,0.0,0.0,0.0,0.0,0.0,0.0,15.0
26.91,0.0,0.0,0.0,0.0,0.0,0.0,0.0,15.0
27.03,0.0,0.0,0.0,0.0,0.0,0.0,0.0,15.0
26.87,0.0,0.0,0.0,0.0,0.0,0.0,0.0,15.0
26.99,0.0,0.0,0.0,0.0,0.0,0.0,0.0,15.0
26.99,0.0,0.0,0.0,0.0,0.0,0.0,0.0,15.0
26.97,0.0,0.0,0.0,0.0,0.0,0.0,0.0,15.0
26.99,0.0,0.0,0.0,0.0,0.0,0.0,0.0,15.0
26.97,0.0,0.0,0.0,0.0,0.0,0.0,0.0,15.0
26.97,0.0,0.0,0.0,0.0,0.0,0.0,0.0,15.0
26.99,0.0,0.0,0.0,0.0,0.0,0.0,0.0,15.0
26.97,0.0,0.0,0.0,0.0,0.0,0.0,0.0,15.0
26.97,0.0,0.0,0.0,0.0,0.0,0.0,0.0,15.0
27.03,0.0,0.0,0.0,0.0,0.0,0.0,0.0,15.0
26.97,0.0,0.0,0.0,0.0,0.0,0.0,0.0,15.0
27.03,0.0,0.0,0.0,0.0,0.0,0.0,0.0,15.0
26.99,0.0,0.0,0.0,0.0,0.0,0.0,0.0,15.0
26.99,0.0,0.0,0.0,0.0,0.0,0.0,0.0,15.0
26.99,0.0,0.0,0.0,0.0,0.0,0.0,0.0,15.0
26.97,0.0,0.0,0.0,0.0,0.0,0.0,0.0,15.0
26.97,0.0,0.0,0.0,0.0,0.0,0.0,0.0,15.0
26.97,0.0,0.0,0.0,0.0,0.0,0.0,0.0,15.0
26.97,0.0,0.0,0.0,0.0,0.0,0.0,0.0,15.0
26.99,0.0,0.0,0.0,0.0,0.0,0.0,0.0,15.0
27.03,0.0,0.0,0.0,0.0,0.0,0.0,0.0,15.0
27.03,0.0,0.0,0.0,0.0,0.0,0.0,0.0,15.0
26.99,0.0,0.0,0.0,0.0,0.0,0.0,0.0,15.0
27.05,0.0,0.0,0.0,0.0,0.0,0.0,0.0,15.0
27.05,0.0,0.0,0.0,0.0,0.0,89.0,0.0,15.0
27.09,0.0,0.0,0.0,0.0,0.0,0.0,0.0,15.0
27.05,0.0,0.0,0.0,0.0,0.0,0.0,0.0,15.0
27.03,0.0,0.0,0.0,0.0,0.0,0.0,0.0,15.0
27.05,0.0,0.0,0.0,0.0,0.0,0.0,0.0,15.0
27.05,0.0,0.0,0.0,0.0,0.0,0.0,0.0,15.0
27.11,0.0,0.0,0.0,0.0,0.0,0.0,0.0,15.0
27.05,0.0,0.0,0.0,0.0,0.0,0.0,0.0,15.0
27.15,0.0,0.0,0.0,0.0,0.0,0.0,0.0,15.0
27.15,0.0,0.0,0.0,0.0,0.0,0.0,0.0,15.0
27.09,0.0,0.0,0.0,0.0,0.0,0.0,0.0,15.0
27.05,0.0,0.0,0.0,0.0,0.0,0.0,0.0,15.0
27.03,0.0,0.0,0.0,0.0,0.0,0.0,0.0,15.0
27.03,0.0,0.0,0.0,0.0,0.0,0.0,0.0,15.0
27.05,0.0,0.0,0.0,0.0,0.0,0.0,0.0,15.0
27.05,0.0,0.0,0.0,0.0,0.0,0.0,0.0,15.0
27.05,0.0,0.0,0.0,0.0,0.0,0.0,0.0,15.0
27.05,0.0,0.0,0.0,0.0,0.0,0.0,0.0,15.0
27.05,0.0,0.0,0.0,0.0,0.0,0.0,0.0,15.0
27.03,0.0,0.0,0.0,0.0,0.0,0.0,0.0,15.0
26.91,0.0,0.0,0.0,0.0,0.0,0.0,0.0,15.0
26.99,0.0,0.0,0.0,0.0,0.0,0.0,0.0,15.0
26.97,0.0,0.0,0.0,0.0,0.0,0.0,0.0,15.0
26.97,0.0,0.0,0.0,0.0,0.0,0.0,0.0,15.0
26.99,0.0,0.0,0.0,0.0,0.0,0.0,0.0,15.0
26.87,0.0,0.0,0.0,0.0,0.0,0.0,0.0,15.0
26.97,0.0,0.0,0.0,0.0,0.0,0.0,0.0,15.0
27.03,0.0,0.0,0.0,0.0,0.0,0.0,0.0,15.0
27.03,0.0,0.0,0.0,0.0,0.0,0.0,0.0,15.0
26.99,0.0,0.0,0.0,0.0,0.0,0.0,0.0,15.0
26.99,0.0,0.0,0.0,0.0,0.0,0.0,0.0,15.0
26.97,0.0,0.0,0.0,0.0,0.0,0.0,0.0,15.0
27.03,0.0,0.0,0.0,0.0,0.0,0.0,0.0,15.0
26.87,0.0,0.0,0.0,0.0,0.0,0.0,0.0,15.0
26.99,0.0,0.0,0.0,0.0,0.0,0.0,0.0,15.0
27.03,0.0,0.0,0.0,0.0,0.0,0.0,0.0,15.0
26.97,0.0,0.0,0.0,0.0,0.0,0.0,0.0,15.0
27.03,0.0,0.0,0.0,0.0,0.0,0.0,0.0,15.0
26.97,0.0,0.0,0.0,0.0,0.0,0.0,0.0,15.0
26.97,0.0,0.0,0.0,0.0,0.0,0.0,0.0,15.0
26.97,0.0,0.0,0.0,0.0,0.0,0.0,0.0,15.0
26.99,0.0,0.0,0.0,0.0,0.0,0.0,0.0,15.0
27.03,0.0,0.0,0.0,0.0,0.0,0.0,0.0,15.0
27.03,0.0,0.0,0.0,0.0,0.0,0.0,0.0,15.0
27.03,0.0,0.0,0.0,0.0,0.0,0.0,0.0,15.0
27.03,0.0,0.0,0.0,0.0,0.0,0.0,0.0,15.0
27.03,0.0,0.0,0.0,0.0,0.0,0.0,0.0,15.0
26.99,0.0,0.0,0.0,0.0,0.0,0.0,0.0,15.0
27.09,0.0,0.0,0.0,0.0,0.0,0.0,0.0,15.0
27.03,0.0,0.0,0.0,0.0,0.0,0.0,0.0,15.0
26.99,0.0,0.0,0.0,0.0,0.0,0.0,0.0,15.0
27.05,0.0,0.0,0.0,0.0,0.0,0.0,0.0,15.0
26.99,0.0,0.0,0.0,0.0,0.0,0.0,0.0,15.0
27.03,0.0,0.0,0.0,0.0,0.0,0.0,0.0,16.0
26.99,0.0,0.0,0.0,0.0,0.0,0.0,0.0,16.0
27.03,0.0,0.0,0.0,0.0,0.0,0.0,0.0,16.0
26.97,0.0,0.0,0.0,0.0,0.0,0.0,0.0,16.0
26.99,0.0,0.0,0.0,0.0,0.0,0.0,0.0,16.0
27.09,0.0,0.0,0.0,0.0,0.0,0.0,0.0,16.0
26.99,0.0,0.0,0.0,0.0,0.0,0.0,0.0,16.0
26.99,0.0,0.0,0.0,0.0,0.0,0.0,0.0,16.0
27.11,0.0,0.0,0.0,0.0,0.0,0.0,0.0,16.0
27.43,0.0,0.0,0.0,0.0,0.0,0.0,0.0,16.0
27.55,0.0,0.0,0.0,0.0,0.0,0.0,0.0,16.0
27.55,0.0,0.0,0.0,0.0,0.0,0.0,0.0,16.0
27.35,0.0,0.0,0.0,0.0,0.0,0.0,0.0,16.0
27.35,0.0,0.0,0.0,0.0,0.0,0.0,0.0,16.0
27.47,0.0,0.0,0.0,0.0,0.0,0.0,0.0,26.0
27.47,0.0,0.0,0.0,0.0,0.0,0.0,0.0,36.0
27.49,0.0,0.0,0.0,0.0,0.0,0.0,0.0,46.0
27.67,0.0,0.0,0.0,0.0,0.0,0.0,0.0,52.0
27.63,104.0,0.0,0.0,0.0,0.0,0.0,0.0,52.0
27.55,0.0,0.0,0.0,0.0,0.0,0.0,0.0,52.0
27.59,0.0,0.0,0.0,0.0,0.0,0.0,0.0,52.0
27.43,0.0,0.0,0.0,0.0,0.0,0.0,0.0,52.0
27.47,0.0,0.0,0.0,0.0,0.0,0.0,0.0,61.0
27.41,0.0,0.0,0.0,0.0,0.0,0.0,0.0,71.0
27.23,0.0,0.0,0.0,0.0,0.0,0.0,0.0,82.0
27.23,0.0,0.0,0.0,0.0,0.0,0.0,198.0,84.0
27.23,0.0,0.0,0.0,0.0,0.0,0.0,236.0,84.0
27.29,0.0,0.0,0.0,0.0,0.0,0.0,246.0,84.0
27.21,0.0,0.0,0.0,0.0,0.0,0.0,251.0,84.0
27.25,0.0,0.0,0.0,0.0,0.0,0.0,254.0,84.0
27.25,0.0,0.0,0.0,0.0,0.0,0.0,250.0,84.0
27.23,0.0,0.0,0.0,0.0,0.0,0.0,256.0,84.0
27.21,0.0,0.0,0.0,0.0,0.0,0.0,252.0,84.0
27.15,0.0,0.0,0.0,0.0,0.0,0.0,252.0,84.0
27.11,0.0,0.0,0.0,0.0,0.0,0.0,257.0,84.0
27.15,0.0,0.0,0.0,0.0,0.0,0.0,258.0,84.0
27.17,0.0,0.0,0.0,0.0,0.0,0.0,253.0,84.0
27.17,0.0,0.0,0.0,0.0,0.0,0.0,261.0,84.0
27.21,0.0,0.0,0.0,0.0,0.0,0.0,262.0,84.0
27.15,0.0,0.0,0.0,0.0,0.0,0.0,264.0,84.0
27.23,0.0,0.0,0.0,0.0,0.0,0.0,259.0,84.0
27.21,0.0,0.0,0.0,0.0,0.0,0.0,268.0,84.0
27.15,0.0,0.0,0.0,0.0,0.0,0.0,262.0,84.0
27.15,0.0,0.0,0.0,0.0,0.0,0.0,264.0,84.0
27.17,0.0,0.0,0.0,0.0,0.0,0.0,265.0,84.0
27.17,0.0,0.0,0.0,0.0,0.0,0.0,267.0,84.0
27.15,0.0,0.0,0.0,0.0,0.0,0.0,269.0,84.0
27.15,0.0,0.0,0.0,0.0,0.0,0.0,269.0,84.0
27.11,0.0,0.0,0.0,0.0,0.0,0.0,276.0,84.0
27.15,0.0,0.0,0.0,0.0,0.0,0.0,272.0,84.0
27.15,0.0,0.0,0.0,0.0,0.0,0.0,270.0,84.0
27.11,0.0,0.0,0.0,0.0,0.0,0.0,272.0,84.0
27.09,0.0,0.0,0.0,0.0,0.0,0.0,273.0,84.0
27.11,0.0,0.0,0.0,0.0,0.0,0.0,258.0,84.0
27.17,0.0,0.0,0.0,0.0,0.0,0.0,268.0,84.0
27.17,0.0,0.0,0.0,0.0,0.0,0.0,269.0,84.0
27.21,0.0,0.0,0.0,0.0,0.0,0.0,271.0,84.0
27.21,0.0,0.0,0.0,0.0,0.0,0.0,266.0,84.0
27.25,0.0,0.0,0.0,0.0,0.0,0.0,269.0,84.0
27.23,0.0,0.0,0.0,0.0,0.0,0.0,272.0,84.0
27.23,0.0,0.0,0.0,0.0,0.0,0.0,269.0,84.0
27.17,0.0,0.0,0.0,0.0,0.0,0.0,271.0,86.0
27.25,0.0,0.0,0.0,0.0,0.0,0.0,271.0,95.0
27.23,0.0,0.0,0.0,0.0,0.0,0.0,273.0,95.0
27.25,0.0,0.0,0.0,0.0,0.0,0.0,272.0,100.0
27.17,0.0,0.0,0.0,0.0,0.0,0.0,271.0,100.0
27.21,0.0,0.0,0.0,0.0,0.0,0.0,267.0,100.0
27.17,0.0,0.0,0.0,0.0,0.0,0.0,275.0,100.0
27.25,0.0,0.0,0.0,0.0,0.0,0.0,280.0,100.0
27.17,0.0,0.0,0.0,0.0,0.0,0.0,274.0,100.0
27.17,0.0,0.0,0.0,0.0,0.0,0.0,281.0,100.0
27.21,0.0,0.0,0.0,0.0,0.0,0.0,285.0,100.0
27.11,0.0,0.0,0.0,0.0,0.0,0.0,280.0,100.0
27.11,0.0,0.0,0.0,0.0,0.0,0.0,289.0,100.0
27.15,0.0,0.0,0.0,0.0,0.0,0.0,292.0,100.0
27.11,0.0,0.0,0.0,0.0,0.0,0.0,289.0,100.0
27.15,0.0,0.0,0.0,0.0,0.0,0.0,288.0,100.0
27.11,0.0,0.0,0.0,0.0,0.0,0.0,289.0,100.0
27.15,0.0,0.0,0.0,0.0,0.0,0.0,294.0,100.0
27.09,0.0,0.0,0.0,0.0,0.0,0.0,294.0,100.0
27.09,0.0,0.0,0.0,0.0,0.0,0.0,292.0,100.0
27.03,0.0,0.0,0.0,0.0,0.0,0.0,289.0,100.0
27.03,0.0,0.0,0.0,0.0,0.0,0.0,290.0,100.0
27.09,0.0,0.0,0.0,0.0,0.0,0.0,296.0,100.0
27.09,0.0,0.0,0.0,0.0,0.0,0.0,299.0,100.0
27.09,0.0,0.0,0.0,0.0,0.0,0.0,297.0,100.0
27.05,0.0,0.0,0.0,0.0,0.0,0.0,296.0,100.0
27.05,0.0,0.0,0.0,0.0,0.0,0.0,296.0,100.0
27.03,0.0,0.0,0.0,0.0,0.0,0.0,289.0,100.0
27.05,0.0,0.0,0.0,0.0,0.0,0.0,290.0,100.0
27.11,0.0,0.0,0.0,0.0,0.0,0.0,293.0,100.0
27.09,0.0,0.0,0.0,0.0,0.0,0.0,295.0,100.0
27.03,0.0,0.0,0.0,0.0,0.0,0.0,291.0,100.0
27.03,0.0,0.0,0.0,0.0,0.0,0.0,295.0,100.0
26.99,0.0,0.0,0.0,0.0,0.0,0.0,294.0,100.0
27.03,0.0,0.0,0.0,0.0,0.0,0.0,293.0,100.0
27.03,0.0,0.0,0.0,0.0,0.0,0.0,298.0,100.0
27.05,0.0,0.0,0.0,0.0,0.0,0.0,295.0,100.0
27.05,0.0,0.0,0.0,0.0,0.0,0.0,296.0,100.0
26.97,0.0,0.0,0.0,0.0,0.0,0.0,297.0,100.0
26.97,0.0,0.0,0.0,0.0,0.0,0.0,292.0,100.0
26.93,0.0,0.0,0.0,0.0,0.0,0.0,296.0,100.0
26.97,0.0,0.0,0.0,0.0,0.0,0.0,297.0,100.0
26.93,0.0,0.0,0.0,0.0,0.0,0.0,296.0,15.0
26.99,0.0,0.0,0.0,0.0,0.0,0.0,290.0,15.0
27.05,0.0,0.0,0.0,0.0,0.0,0.0,0.0,15.0
26.99,0.0,0.0,0.0,0.0,0.0,0.0,0.0,18.0
27.03,0.0,0.0,0.0,0.0,0.0,0.0,0.0,27.0
27.09,0.0,0.0,0.0,0.0,0.0,0.0,0.0,37.0
26.99,0.0,0.0,0.0,0.0,0.0,0.0,0.0,41.0
27.05,0.0,0.0,0.0,0.0,0.0,0.0,0.0,41.0
27.11,0.0,0.0,0.0,0.0,0.0,0.0,0.0,41.0
27.09,0.0,0.0,0.0,0.0,0.0,0.0,0.0,41.0
27.85,0.0,0.0,0.0,0.0,0.0,0.0,0.0,41.0
27.53,0.0,0.0,0.0,0.0,0.0,0.0,0.0,41.0
27.15,0.0,0.0,0.0,0.0,0.0,0.0,0.0,41.0
27.17,0.0,0.0,304.0,0.0,0.0,0.0,0.0,41.0
27.15,0.0,0.0,0.0,0.0,0.0,0.0,0.0,41.0
27.21,0.0,0.0,0.0,0.0,0.0,0.0,0.0,41.0
27.17,0.0,0.0,0.0,0.0,0.0,0.0,0.0,41.0
27.25,0.0,0.0,0.0,0.0,0.0,0.0,0.0,41.0
27.25,0.0,0.0,0.0,0.0,0.0,0.0,0.0,41.0
27.35,0.0,0.0,0.0,0.0,0.0,0.0,0.0,41.0
27.23,0.0,0.0,0.0,0.0,0.0,0.0,0.0,41.0
27.17,0.0,0.0,0.0,0.0,0.0,0.0,0.0,41.0
27.17,0.0,0.0,0.0,0.0,0.0,0.0,0.0,41.0
27.05,0.0,0.0,0.0,0.0,0.0,0.0,0.0,41.0
27.09,0.0,0.0,0.0,0.0,0.0,0.0,0.0,41.0
27.09,0.0,0.0,0.0,0.0,0.0,0.0,0.0,41.0
27.05,0.0,0.0,0.0,0.0,0.0,0.0,0.0,41.0
26.97,0.0,0.0,0.0,0.0,0.0,0.0,0.0,41.0
26.97,0.0,0.0,0.0,0.0,0.0,0.0,0.0,41.0
27.03,0.0,0.0,0.0,0.0,0.0,0.0,0.0,41.0
27.03,0.0,0.0,0.0,0.0,0.0,0.0,0.0,41.0
27.11,0.0,0.0,0.0,0.0,0.0,0.0,0.0,41.0
27.11,0.0,0.0,0.0,0.0,0.0,0.0,0.0,41.0
27.09,0.0,0.0,0.0,0.0,0.0,0.0,0.0,41.0
27.05,0.0,16.0,0.0,0.0,0.0,0.0,0.0,41.0
27.03,0.0,0.0,0.0,0.0,0.0,0.0,0.0,41.0
27.11,0.0,0.0,0.0,0.0,0.0,0.0,0.0,41.0
27.09,0.0,0.0,0.0,0.0,0.0,0.0,0.0,41.0
27.03,0.0,0.0,0.0,0.0,0.0,0.0,0.0,41.0
26.93,0.0,0.0,0.0,0.0,0.0,0.0,0.0,41.0
26.93,0.0,0.0,0.0,0.0,0.0,0.0,0.0,41.0
27.03,0.0,0.0,0.0,0.0,0.0,0.0,0.0,41.0
26.97,0.0,0.0,0.0,0.0,0.0,0.0,0.0,41.0
27.03,0.0,0.0,0.0,0.0,0.0,0.0,0.0,15.0
26.97,0.0,0.0,0.0,0.0,0.0,0.0,0.0,15.0
26.99,0.0,0.0,0.0,0.0,0.0,0.0,0.0,15.0
26.55,0.0,0.0,0.0,0.0,0.0,0.0,0.0,15.0
26.17,0.0,0.0,0.0,0.0,0.0,0.0,0.0,15.0
25.93,0.0,0.0,0.0,0.0,0.0,0.0,0.0,15.0
25.69,0.0,0.0,0.0,0.0,0.0,0.0,0.0,15.0
25.69,0.0,0.0,0.0,0.0,0.0,0.0,0.0,15.0
25.63,0.0,0.0,0.0,0.0,0.0,0.0,0.0,15.0
25.67,0.0,0.0,0.0,0.0,0.0,0.0,0.0,22.0
25.63,0.0,0.0,0.0,0.0,0.0,0.0,0.0,33.0
25.63,0.0,0.0,0.0,0.0,0.0,0.0,0.0,43.0
25.69,0.0,0.0,0.0,0.0,0.0,0.0,0.0,53.0
25.73,0.0,0.0,0.0,0.0,0.0,0.0,0.0,63.0
25.85,0.0,0.0,0.0,0.0,0.0,0.0,0.0,73.0
25.87,0.0,0.0,0.0,0.0,0.0,0.0,0.0,83.0
25.91,0.0,0.0,0.0,0.0,0.0,0.0,0.0,92.0
25.87,0.0,85.0,0.0,0.0,0.0,0.0,796.0,100.0
25.97,0.0,103.0,0.0,0.0,0.0,0.0,903.0,100.0
25.87,0.0,123.0,0.0,0.0,0.0,0.0,921.0,100.0
25.91,0.0,129.0,0.0,0.0,0.0,0.0,935.0,100.0
25.91,0.0,126.0,0.0,0.0,0.0,0.0,951.0,100.0
25.91,0.0,140.0,0.0,0.0,0.0,0.0,960.0,100.0
25.93,0.0,132.0,0.0,0.0,0.0,0.0,959.0,100.0
25.91,0.0,135.0,0.0,0.0,0.0,0.0,967.0,100.0
25.93,0.0,144.0,0.0,0.0,0.0,0.0,982.0,100.0
25.87,0.0,144.0,0.0,0.0,0.0,0.0,988.0,100.0
25.97,48.0,144.0,0.0,0.0,0.0,0.0,975.0,100.0
25.91,0.0,150.0,0.0,0.0,0.0,0.0,971.0,100.0
25.93,0.0,147.0,0.0,0.0,0.0,0.0,966.0,100.0
25.93,0.0,128.0,0.0,0.0,0.0,0.0,988.0,100.0
25.87,0.0,145.0,0.0,0.0,0.0,0.0,978.0,100.0
25.87,0.0,163.0,0.0,0.0,0.0,0.0,999.0,100.0
25.91,0.0,236.0,0.0,0.0,0.0,0.0,1002.0,100.0
25.93,0.0,161.0,0.0,0.0,0.0,0.0,1005.0,100.0
25.87,0.0,160.0,0.0,0.0,0.0,0.0,1008.0,100.0
25.93,0.0,161.0,0.0,0.0,0.0,0.0,1001.0,100.0
25.93,0.0,164.0,0.0,0.0,0.0,0.0,995.0,100.0
25.93,0.0,162.0,0.0,0.0,0.0,0.0,987.0,100.0
25.93,0.0,163.0,0.0,0.0,0.0,0.0,993.0,100.0
25.93,0.0,128.0,0.0,0.0,0.0,0.0,989.0,100.0
26.03,0.0,172.0,0.0,0.0,0.0,0.0,986.0,100.0
25.99,0.0,159.0,0.0,0.0,0.0,0.0,989.0,100.0
25.91,0.0,164.0,0.0,0.0,0.0,0.0,980.0,100.0
25.85,0.0,171.0,0.0,0.0,0.0,0.0,986.0,100.0
25.97,0.0,144.0,0.0,0.0,0.0,0.0,994.0,100.0
25.91,0.0,160.0,0.0,0.0,0.0,0.0,987.0,100.0
25.87,0.0,176.0,0.0,0.0,0.0,0.0,989.0,100.0
25.93,0.0,173.0,0.0,0.0,0.0,0.0,994.0,100.0
25.87,0.0,167.0,0.0,0.0,0.0,0.0,994.0,100.0
25.93,0.0,168.0,0.0,0.0,0.0,0.0,991.0,100.0
25.91,0.0,76.0,0.0,0.0,0.0,0.0,1001.0,100.0
25.87,0.0,161.0,0.0,0.0,0.0,0.0,1003.0,100.0
25.97,0.0,165.0,0.0,0.0,0.0,0.0,997.0,100.0
25.91,0.0,172.0,0.0,0.0,0.0,0.0,1007.0,100.0
25.85,0.0,165.0,0.0,0.0,0.0,0.0,999.0,100.0
25.91,0.0,169.0,0.0,0.0,0.0,0.0,996.0,100.0
25.93,0.0,173.0,0.0,0.0,0.0,0.0,999.0,100.0
25.93,0.0,168.0,0.0,0.0,0.0,0.0,1002.0,100.0
25.87,0.0,164.0,0.0,0.0,0.0,0.0,1002.0,100.0
25.91,0.0,167.0,0.0,0.0,0.0,0.0,1004.0,100.0
25.93,0.0,173.0,0.0,0.0,0.0,0.0,998.0,100.0
25.87,0.0,149.0,0.0,0.0,0.0,0.0,1004.0,100.0
25.97,0.0,172.0,0.0,0.0,0.0,0.0,999.0,100.0
25.97,0.0,181.0,0.0,0.0,0.0,0.0,1004.0,100.0
25.93,0.0,176.0,0.0,0.0,0.0,0.0,1000.0,100.0
25.93,0.0,173.0,0.0,0.0,0.0,0.0,1004.0,100.0
25.93,0.0,176.0,0.0,0.0,0.0,0.0,1005.0,100.0
25.85,0.0,174.0,0.0,0.0,0.0,0.0,1010.0,100.0
25.91,0.0,173.0,0.0,0.0,0.0,0.0,1003.0,100.0
25.87,0.0,176.0,0.0,0.0,0.0,0.0,1015.0,100.0
25.97,0.0,175.0,0.0,0.0,0.0,0.0,1008.0,100.0
25.97,0.0,178.0,0.0,0.0,0.0,0.0,1013.0,100.0
25.91,0.0,176.0,0.0,0.0,0.0,0.0,1016.0,100.0
25.93,0.0,172.0,0.0,0.0,0.0,0.0,1024.0,100.0
25.91,0.0,0.0,0.0,0.0,0.0,0.0,1015.0,100.0
25.91,0.0,0.0,0.0,0.0,178.0,0.0,1019.0,100.0
25.91,0.0,171.0,0.0,0.0,0.0,0.0,1024.0,100.0
25.93,0.0,173.0,0.0,0.0,0.0,0.0,1017.0,100.0
25.93,0.0,175.0,0.0,0.0,0.0,0.0,1021.0,100.0
25.85,0.0,192.0,0.0,0.0,0.0,0.0,1017.0,100.0
25.87,0.0,177.0,0.0,0.0,0.0,0.0,1018.0,100.0
25.93,0.0,161.0,0.0,0.0,0.0,0.0,1027.0,100.0
25.91,0.0,175.0,0.0,0.0,0.0,0.0,1021.0,100.0
25.87,0.0,118.0,0.0,0.0,0.0,0.0,1024.0,100.0
25.85,0.0,112.0,0.0,0.0,0.0,0.0,1023.0,100.0
25.91,0.0,171.0,0.0,0.0,0.0,0.0,1022.0,100.0
25.93,0.0,177.0,0.0,0.0,0.0,0.0,1023.0,100.0
25.91,0.0,176.0,0.0,0.0,0.0,0.0,1023.0,100.0
25.93,0.0,170.0,0.0,0.0,0.0,0.0,1022.0,100.0
25.91,0.0,128.0,0.0,0.0,0.0,0.0,881.0,100.0
25.85,0.0,147.0,0.0,0.0,0.0,0.0,890.0,100.0
25.93,0.0,128.0,0.0,0.0,0.0,0.0,895.0,100.0
25.91,0.0,0.0,0.0,0.0,0.0,0.0,901.0,100.0
25.91,0.0,121.0,0.0,0.0,0.0,0.0,912.0,100.0
25.93,0.0,129.0,0.0,0.0,0.0,0.0,911.0,100.0
25.93,0.0,112.0,0.0,0.0,0.0,0.0,916.0,100.0
25.93,0.0,130.0,0.0,0.0,0.0,0.0,913.0,100.0
25.93,0.0,164.0,0.0,0.0,0.0,0.0,1006.0,100.0
25.87,0.0,184.0,0.0,0.0,0.0,0.0,1085.0,100.0
25.93,0.0,189.0,0.0,0.0,29.0,0.0,1104.0,100.0
25.97,0.0,190.0,0.0,0.0,0.0,0.0,1103.0,100.0
25.93,0.0,183.0,0.0,0.0,0.0,0.0,1101.0,100.0
25.93,0.0,193.0,0.0,0.0,0.0,0.0,1111.0,18.0
25.69,0.0,0.0,0.0,0.0,0.0,0.0,0.0,24.0
26.91,0.0,0.0,0.0,0.0,0.0,0.0,0.0,24.0
26.91,0.0,0.0,0.0,0.0,0.0,0.0,0.0,24.0
26.87,0.0,0.0,0.0,0.0,0.0,0.0,0.0,24.0
26.93,0.0,0.0,0.0,0.0,0.0,0.0,0.0,24.0
27.47,0.0,0.0,0.0,0.0,0.0,0.0,0.0,29.0
28.07,0.0,0.0,0.0,0.0,0.0,0.0,0.0,29.0
27.59,0.0,0.0,0.0,0.0,0.0,0.0,0.0,29.0
27.21,0.0,0.0,0.0,0.0,0.0,0.0,0.0,29.0
27.17,0.0,0.0,0.0,0.0,0.0,0.0,0.0,29.0
27.15,0.0,0.0,0.0,0.0,0.0,0.0,0.0,29.0
27.05,0.0,0.0,0.0,0.0,0.0,0.0,0.0,29.0
27.15,0.0,0.0,0.0,0.0,0.0,0.0,0.0,29.0
27.17,0.0,0.0,0.0,0.0,0.0,0.0,0.0,29.0
27.17,0.0,0.0,0.0,0.0,0.0,0.0,0.0,29.0
27.23,0.0,0.0,0.0,0.0,0.0,0.0,0.0,29.0
27.23,0.0,0.0,0.0,0.0,0.0,0.0,0.0,29.0
27.25,0.0,0.0,0.0,0.0,0.0,0.0,0.0,29.0
27.15,0.0,0.0,0.0,0.0,0.0,0.0,0.0,29.0
27.15,0.0,0.0,0.0,0.0,0.0,0.0,0.0,29.0
27.09,0.0,0.0,0.0,0.0,0.0,0.0,0.0,29.0
26.99,0.0,0.0,0.0,0.0,0.0,0.0,0.0,29.0
27.03,0.0,0.0,0.0,0.0,0.0,0.0,0.0,29.0
27.03,0.0,0.0,0.0,0.0,0.0,0.0,0.0,29.0
27.03,0.0,0.0,0.0,0.0,0.0,0.0,0.0,29.0
27.11,0.0,0.0,0.0,0.0,0.0,0.0,0.0,29.0
27.11,0.0,0.0,0.0,0.0,0.0,0.0,0.0,29.0
27.05,0.0,0.0,0.0,0.0,0.0,0.0,0.0,29.0
27.09,0.0,0.0,0.0,0.0,0.0,0.0,0.0,29.0
27.05,0.0,0.0,0.0,0.0,0.0,0.0,0.0,29.0
27.09,0.0,0.0,0.0,0.0,0.0,0.0,0.0,29.0
27.09,0.0,0.0,0.0,0.0,0.0,0.0,0.0,29.0
27.11,0.0,0.0,0.0,0.0,0.0,0.0,0.0,29.0
27.05,0.0,0.0,0.0,0.0,0.0,0.0,0.0,29.0
27.11,0.0,0.0,0.0,0.0,0.0,0.0,0.0,29.0
27.09,0.0,0.0,0.0,0.0,0.0,0.0,0.0,29.0
27.05,0.0,0.0,0.0,0.0,0.0,0.0,0.0,29.0
27.09,0.0,0.0,0.0,0.0,0.0,0.0,0.0,29.0
27.11,0.0,0.0,0.0,0.0,0.0,0.0,0.0,29.0
27.03,0.0,0.0,0.0,0.0,0.0,0.0,0.0,29.0
26.91,0.0,0.0,0.0,0.0,0.0,0.0,0.0,15.0
27.03,0.0,0.0,0.0,0.0,0.0,0.0,0.0,15.0
27.11,0.0,0.0,0.0,0.0,0.0,0.0,0.0,15.0
27.03,0.0,0.0,0.0,0.0,0.0,0.0,0.0,15.0
27.17,0.0,0.0,0.0,0.0,0.0,0.0,0.0,15.0
27.15,0.0,0.0,0.0,0.0,0.0,0.0,0.0,15.0
27.15,0.0,0.0,0.0,0.0,0.0,0.0,0.0,15.0
27.43,0.0,0.0,0.0,0.0,0.0,0.0,0.0,15.0
27.67,0.0,0.0,0.0,0.0,0.0,0.0,0.0,15.0
27.95,0.0,0.0,0.0,0.0,0.0,0.0,0.0,15.0
28.57,0.0,0.0,0.0,0.0,0.0,0.0,0.0,18.0
28.63,0.0,0.0,0.0,0.0,0.0,0.0,0.0,28.0
28.57,0.0,0.0,0.0,0.0,0.0,0.0,0.0,38.0
28.71,0.0,0.0,0.0,0.0,0.0,0.0,0.0,48.0
28.69,0.0,0.0,0.0,0.0,0.0,0.0,0.0,58.0
28.51,0.0,0.0,0.0,0.0,0.0,0.0,718.0,67.0
28.43,0.0,0.0,0.0,0.0,0.0,0.0,2569.0,76.0
28.43,0.0,0.0,0.0,0.0,0.0,0.0,2672.0,82.0
28.37,0.0,0.0,0.0,0.0,0.0,0.0,2699.0,82.0
28.39,0.0,117.0,0.0,0.0,0.0,0.0,2713.0,82.0
28.31,0.0,32.0,0.0,0.0,0.0,0.0,2725.0,82.0
28.31,0.0,42.0,0.0,0.0,0.0,0.0,2696.0,82.0
28.27,0.0,0.0,0.0,0.0,0.0,0.0,2714.0,82.0
28.37,0.0,56.0,0.0,0.0,0.0,0.0,2751.0,82.0
28.37,0.0,41.0,0.0,0.0,0.0,0.0,2747.0,82.0
28.25,0.0,0.0,0.0,0.0,0.0,0.0,2594.0,82.0
28.39,0.0,0.0,0.0,0.0,0.0,0.0,2600.0,82.0
28.33,0.0,0.0,0.0,0.0,0.0,0.0,2605.0,82.0
28.27,0.0,1.0,0.0,0.0,0.0,0.0,2601.0,82.0
28.27,0.0,9.0,0.0,0.0,0.0,0.0,2563.0,82.0
28.37,0.0,11.0,0.0,0.0,0.0,0.0,2562.0,82.0
28.43,0.0,9.0,0.0,0.0,0.0,0.0,2577.0,82.0
28.37,0.0,16.0,0.0,0.0,0.0,0.0,2537.0,82.0
28.17,0.0,32.0,0.0,0.0,0.0,0.0,2501.0,82.0
28.23,0.0,35.0,0.0,0.0,0.0,0.0,2519.0,82.0
28.31,0.0,37.0,0.0,0.0,0.0,0.0,2499.0,82.0
28.25,0.0,53.0,0.0,0.0,0.0,0.0,2460.0,82.0
28.31,0.0,54.0,0.0,0.0,0.0,0.0,2493.0,82.0
28.25,0.0,40.0,0.0,0.0,0.0,0.0,2521.0,86.0
28.19,0.0,166.0,0.0,0.0,80.0,0.0,3038.0,89.0
28.33,0.0,147.0,0.0,0.0,80.0,0.0,3017.0,89.0
28.27,0.0,79.0,0.0,0.0,48.0,0.0,2936.0,89.0
28.25,0.0,96.0,0.0,0.0,38.0,0.0,2936.0,92.0
28.23,0.0,96.0,0.0,0.0,36.0,0.0,2947.0,100.0
28.23,0.0,100.0,0.0,0.0,35.0,0.0,2949.0,100.0
28.25,0.0,96.0,0.0,0.0,0.0,0.0,2859.0,100.0
28.23,0.0,0.0,0.0,0.0,0.0,0.0,2090.0,100.0
28.19,0.0,0.0,0.0,0.0,0.0,0.0,2098.0,100.0
28.25,0.0,0.0,0.0,0.0,0.0,0.0,1883.0,100.0
28.23,0.0,0.0,0.0,0.0,0.0,0.0,1392.0,100.0
28.23,0.0,0.0,0.0,0.0,0.0,0.0,1330.0,100.0
28.19,0.0,0.0,0.0,0.0,0.0,0.0,1181.0,100.0
28.25,0.0,0.0,0.0,0.0,0.0,0.0,1186.0,100.0
28.23,0.0,0.0,0.0,0.0,0.0,0.0,1208.0,100.0
28.27,0.0,0.0,0.0,0.0,0.0,0.0,1231.0,100.0
28.23,0.0,0.0,0.0,0.0,0.0,0.0,1246.0,100.0
28.31,0.0,0.0,0.0,0.0,0.0,0.0,1249.0,100.0
28.23,0.0,0.0,0.0,0.0,0.0,0.0,1264.0,100.0
28.19,0.0,0.0,0.0,0.0,0.0,0.0,1270.0,100.0
28.23,0.0,0.0,0.0,0.0,0.0,0.0,1277.0,100.0
28.23,0.0,0.0,0.0,0.0,120.0,0.0,1282.0,100.0
28.25,0.0,0.0,0.0,0.0,0.0,0.0,1281.0,100.0
28.17,0.0,0.0,0.0,0.0,0.0,0.0,1292.0,100.0
28.13,0.0,0.0,0.0,0.0,0.0,0.0,1290.0,100.0
28.19,0.0,0.0,0.0,0.0,0.0,0.0,1302.0,100.0
28.19,0.0,0.0,0.0,0.0,0.0,0.0,1312.0,100.0
28.19,0.0,0.0,0.0,0.0,0.0,0.0,1316.0,100.0
28.17,0.0,0.0,0.0,0.0,0.0,0.0,1313.0,100.0
28.23,0.0,0.0,0.0,0.0,0.0,0.0,1315.0,100.0
28.07,0.0,0.0,0.0,0.0,0.0,0.0,1322.0,100.0
28.23,0.0,0.0,0.0,0.0,0.0,0.0,1318.0,100.0
28.19,0.0,0.0,0.0,0.0,0.0,0.0,1335.0,100.0
28.19,0.0,0.0,0.0,0.0,0.0,0.0,1329.0,100.0
28.23,0.0,0.0,0.0,0.0,0.0,0.0,1332.0,100.0
28.13,0.0,0.0,0.0,0.0,0.0,0.0,1336.0,100.0
28.17,0.0,0.0,0.0,0.0,0.0,0.0,1337.0,100.0
28.17,0.0,0.0,0.0,0.0,0.0,0.0,1375.0,100.0
28.13,0.0,0.0,0.0,0.0,0.0,0.0,1363.0,100.0
28.13,0.0,0.0,0.0,0.0,0.0,0.0,1356.0,100.0
28.11,0.0,0.0,0.0,0.0,0.0,0.0,1382.0,100.0
28.17,0.0,0.0,0.0,0.0,0.0,0.0,1379.0,100.0
28.13,0.0,0.0,0.0,0.0,0.0,0.0,1388.0,100.0
28.13,0.0,0.0,0.0,0.0,0.0,0.0,1404.0,100.0
28.13,0.0,0.0,0.0,0.0,0.0,0.0,1397.0,100.0
28.11,0.0,0.0,0.0,0.0,0.0,0.0,1394.0,100.0
28.05,0.0,0.0,0.0,0.0,0.0,0.0,1397.0,100.0
28.13,0.0,0.0,0.0,0.0,0.0,0.0,1399.0,100.0
28.13,0.0,0.0,0.0,0.0,0.0,0.0,1399.0,100.0
28.11,0.0,0.0,0.0,0.0,0.0,0.0,1466.0,100.0
28.07,0.0,0.0,0.0,0.0,0.0,0.0,1506.0,100.0
28.05,0.0,0.0,0.0,0.0,0.0,0.0,1504.0,100.0
28.07,0.0,0.0,0.0,0.0,0.0,0.0,1573.0,100.0
28.05,0.0,0.0,0.0,0.0,0.0,0.0,1609.0,100.0
28.07,0.0,0.0,0.0,0.0,0.0,0.0,1614.0,100.0
28.05,0.0,0.0,0.0,0.0,0.0,0.0,1629.0,100.0
28.11,0.0,0.0,0.0,0.0,0.0,0.0,1637.0,100.0
27.99,0.0,0.0,0.0,0.0,0.0,0.0,1646.0,100.0
28.07,0.0,0.0,0.0,0.0,0.0,0.0,1646.0,100.0
28.05,0.0,0.0,0.0,0.0,0.0,0.0,1653.0,100.0
28.11,0.0,0.0,0.0,0.0,0.0,0.0,1658.0,100.0
27.95,0.0,0.0,0.0,0.0,0.0,0.0,1661.0,100.0
28.11,0.0,0.0,0.0,0.0,0.0,0.0,1665.0,100.0
28.01,0.0,0.0,0.0,0.0,0.0,0.0,1657.0,100.0
28.13,0.0,0.0,0.0,0.0,0.0,0.0,1671.0,100.0
28.17,0.0,0.0,0.0,0.0,0.0,0.0,1674.0,100.0
28.13,0.0,0.0,0.0,0.0,0.0,0.0,877.0,15.0
28.19,0.0,0.0,0.0,0.0,0.0,0.0,0.0,15.0
27.21,0.0,0.0,0.0,0.0,0.0,0.0,0.0,15.0
27.17,0.0,0.0,0.0,0.0,0.0,0.0,0.0,15.0
27.09,0.0,0.0,0.0,0.0,0.0,0.0,0.0,15.0
27.17,0.0,0.0,0.0,0.0,0.0,0.0,0.0,15.0
27.17,0.0,0.0,0.0,0.0,0.0,0.0,0.0,15.0
27.59,0.0,0.0,0.0,0.0,0.0,0.0,0.0,15.0
27.53,0.0,0.0,0.0,0.0,0.0,0.0,0.0,15.0
27.23,0.0,0.0,0.0,0.0,0.0,0.0,0.0,15.0
27.21,0.0,0.0,0.0,0.0,0.0,0.0,0.0,15.0
27.11,0.0,0.0,0.0,0.0,0.0,0.0,0.0,15.0
27.11,0.0,0.0,0.0,0.0,0.0,0.0,0.0,15.0
27.23,0.0,0.0,0.0,0.0,0.0,0.0,0.0,15.0
27.37,0.0,0.0,0.0,0.0,0.0,0.0,0.0,15.0
27.31,0.0,0.0,0.0,0.0,0.0,0.0,0.0,15.0
27.35,0.0,0.0,0.0,0.0,0.0,0.0,0.0,15.0
27.35,0.0,0.0,0.0,0.0,0.0,0.0,0.0,15.0
27.23,0.0,0.0,0.0,0.0,0.0,0.0,0.0,15.0
27.17,0.0,0.0,0.0,0.0,0.0,0.0,0.0,15.0
27.25,0.0,0.0,0.0,0.0,0.0,0.0,0.0,15.0
27.25,0.0,0.0,0.0,0.0,0.0,0.0,0.0,15.0
27.25,0.0,0.0,0.0,0.0,0.0,0.0,0.0,15.0
27.25,0.0,0.0,0.0,0.0,0.0,0.0,0.0,15.0
27.25,0.0,0.0,0.0,0.0,0.0,0.0,0.0,15.0
27.29,0.0,0.0,0.0,0.0,0.0,0.0,0.0,15.0
27.31,0.0,0.0,0.0,0.0,0.0,0.0,0.0,15.0
27.21,0.0,0.0,0.0,0.0,0.0,0.0,0.0,15.0
27.21,0.0,0.0,0.0,0.0,0.0,0.0,0.0,15.0
27.21,0.0,0.0,0.0,0.0,0.0,0.0,0.0,15.0
27.21,0.0,0.0,0.0,0.0,0.0,0.0,0.0,15.0
27.17,0.0,0.0,0.0,0.0,0.0,0.0,0.0,15.0
27.15,0.0,0.0,0.0,0.0,0.0,0.0,0.0,15.0
27.25,0.0,0.0,0.0,0.0,0.0,0.0,0.0,15.0
27.29,0.0,0.0,0.0,0.0,0.0,0.0,0.0,15.0
27.25,0.0,0.0,0.0,0.0,0.0,0.0,0.0,15.0
27.29,0.0,0.0,0.0,0.0,0.0,0.0,0.0,15.0
27.29,0.0,0.0,0.0,0.0,0.0,0.0,0.0,15.0
27.25,0.0,0.0,0.0,0.0,0.0,0.0,0.0,15.0
27.35,0.0,0.0,0.0,0.0,0.0,0.0,0.0,15.0
27.29,0.0,0.0,0.0,0.0,0.0,0.0,0.0,15.0
27.25,0.0,0.0,0.0,0.0,0.0,0.0,0.0,15.0
27.31,0.0,0.0,0.0,0.0,0.0,0.0,0.0,15.0
27.25,0.0,0.0,0.0,0.0,0.0,0.0,0.0,15.0
27.29,0.0,0.0,0.0,0.0,0.0,0.0,0.0,15.0
27.23,0.0,0.0,0.0,0.0,0.0,0.0,0.0,15.0
26.99,0.0,0.0,0.0,0.0,0.0,0.0,0.0,15.0
26.93,0.0,0.0,0.0,0.0,0.0,0.0,0.0,15.0
26.79,0.0,0.0,0.0,0.0,0.0,0.0,0.0,17.0
26.73,0.0,0.0,0.0,0.0,0.0,0.0,0.0,27.0
26.73,0.0,0.0,0.0,0.0,0.0,0.0,0.0,36.0
26.77,0.0,0.0,0.0,0.0,0.0,0.0,0.0,46.0
26.77,0.0,0.0,0.0,0.0,0.0,0.0,0.0,55.0
26.83,0.0,0.0,0.0,0.0,0.0,0.0,0.0,56.0
26.83,0.0,0.0,0.0,0.0,0.0,0.0,0.0,64.0
26.73,0.0,0.0,0.0,0.0,0.0,0.0,0.0,74.0
26.83,0.0,0.0,52.0,0.0,0.0,0.0,0.0,85.0
26.79,0.0,0.0,780.0,0.0,0.0,0.0,32.0,95.0
26.79,0.0,0.0,1085.0,0.0,0.0,0.0,41.0,95.0
26.79,0.0,0.0,1322.0,0.0,0.0,0.0,53.0,95.0
26.79,0.0,0.0,1405.0,0.0,0.0,0.0,51.0,95.0
26.83,0.0,0.0,1461.0,0.0,0.0,0.0,47.0,95.0
26.83,0.0,0.0,1505.0,0.0,0.0,0.0,61.0,95.0
26.83,0.0,0.0,1527.0,0.0,0.0,0.0,67.0,95.0
26.79,0.0,0.0,1411.0,0.0,0.0,0.0,0.0,95.0
26.83,0.0,0.0,1425.0,0.0,0.0,0.0,4.0,95.0
26.83,0.0,0.0,1455.0,0.0,0.0,0.0,4.0,95.0
26.79,0.0,0.0,1470.0,0.0,0.0,0.0,11.0,95.0
26.83,0.0,0.0,1479.0,0.0,0.0,0.0,17.0,95.0
26.77,0.0,0.0,1488.0,0.0,0.0,0.0,10.0,95.0
26.77,0.0,0.0,1623.0,0.0,0.0,0.0,9.0,95.0
26.79,0.0,0.0,1496.0,0.0,0.0,0.0,6.0,95.0
26.71,0.0,0.0,1616.0,0.0,0.0,0.0,12.0,95.0
26.77,0.0,0.0,1637.0,0.0,0.0,0.0,22.0,95.0
26.77,0.0,0.0,1653.0,0.0,0.0,0.0,34.0,95.0
26.77,0.0,0.0,1682.0,0.0,0.0,0.0,36.0,95.0
26.79,0.0,0.0,1689.0,0.0,0.0,0.0,44.0,95.0
26.79,0.0,0.0,1706.0,0.0,0.0,0.0,45.0,95.0
26.73,0.0,0.0,1684.0,0.0,0.0,0.0,47.0,97.0
26.79,0.0,0.0,1711.0,0.0,0.0,0.0,48.0,97.0
26.67,0.0,0.0,1719.0,0.0,0.0,0.0,51.0,97.0
26.79,0.0,0.0,1718.0,0.0,0.0,0.0,49.0,100.0
26.73,0.0,0.0,1725.0,0.0,0.0,0.0,53.0,100.0
26.67,0.0,0.0,1725.0,0.0,0.0,0.0,51.0,100.0
26.73,0.0,0.0,1719.0,0.0,0.0,0.0,46.0,100.0
26.71,0.0,0.0,1648.0,0.0,0.0,0.0,56.0,100.0
26.67,0.0,0.0,1723.0,0.0,0.0,0.0,46.0,100.0
26.71,0.0,0.0,1718.0,0.0,0.0,0.0,50.0,100.0
26.65,0.0,0.0,1723.0,0.0,0.0,0.0,47.0,100.0
26.79,0.0,0.0,1719.0,0.0,0.0,0.0,56.0,100.0
26.73,0.0,0.0,1717.0,0.0,0.0,0.0,42.0,100.0
26.77,0.0,0.0,1717.0,0.0,0.0,0.0,43.0,100.0
26.73,0.0,0.0,1716.0,0.0,0.0,0.0,46.0,100.0
26.71,0.0,0.0,1722.0,0.0,0.0,0.0,45.0,100.0
26.61,0.0,0.0,1727.0,0.0,0.0,0.0,41.0,100.0
26.67,0.0,0.0,1718.0,0.0,0.0,0.0,48.0,100.0
26.71,0.0,0.0,1657.0,0.0,0.0,0.0,35.0,100.0
26.65,0.0,0.0,1723.0,0.0,0.0,0.0,41.0,100.0
26.65,0.0,0.0,1727.0,0.0,0.0,0.0,45.0,100.0
26.65,0.0,0.0,1721.0,0.0,0.0,0.0,35.0,100.0
26.67,0.0,0.0,1718.0,0.0,0.0,0.0,38.0,100.0
26.67,0.0,0.0,1723.0,0.0,0.0,0.0,35.0,100.0
26.67,0.0,0.0,1721.0,0.0,0.0,0.0,34.0,100.0
26.77,0.0,0.0,1728.0,0.0,0.0,0.0,30.0,100.0
26.65,0.0,0.0,1730.0,0.0,0.0,0.0,23.0,100.0
26.67,0.0,0.0,1725.0,0.0,0.0,0.0,16.0,100.0
26.65,0.0,0.0,1685.0,0.0,0.0,0.0,23.0,100.0
26.67,0.0,0.0,1728.0,0.0,0.0,0.0,23.0,100.0
26.67,0.0,0.0,1744.0,0.0,0.0,0.0,25.0,100.0
26.65,0.0,0.0,1715.0,0.0,0.0,0.0,17.0,100.0
26.67,0.0,0.0,1853.0,0.0,0.0,0.0,22.0,100.0
26.65,0.0,0.0,1725.0,328.0,0.0,0.0,26.0,100.0
26.67,0.0,0.0,1535.0,0.0,0.0,0.0,29.0,100.0
26.65,0.0,0.0,1728.0,0.0,0.0,0.0,26.0,100.0
26.65,0.0,0.0,1733.0,0.0,0.0,0.0,26.0,100.0
26.67,0.0,0.0,1735.0,0.0,0.0,0.0,25.0,100.0
26.65,0.0,0.0,1728.0,0.0,0.0,0.0,19.0,100.0
26.65,0.0,0.0,1726.0,0.0,0.0,0.0,23.0,100.0
26.61,0.0,0.0,1730.0,0.0,0.0,0.0,26.0,100.0
26.67,0.0,0.0,1731.0,0.0,0.0,0.0,26.0,100.0
26.61,0.0,0.0,1728.0,0.0,0.0,0.0,28.0,100.0
26.59,0.0,0.0,1729.0,0.0,0.0,0.0,24.0,100.0
26.65,0.0,0.0,1727.0,0.0,0.0,0.0,20.0,100.0
26.67,0.0,0.0,1727.0,0.0,0.0,0.0,29.0,100.0
26.73,0.0,0.0,1727.0,0.0,0.0,0.0,24.0,100.0
26.65,0.0,0.0,1312.0,0.0,0.0,0.0,30.0,100.0
26.65,0.0,32.0,1735.0,0.0,0.0,0.0,33.0,100.0
26.61,0.0,0.0,1733.0,0.0,0.0,0.0,39.0,100.0
26.65,0.0,0.0,1739.0,0.0,0.0,0.0,37.0,100.0
26.61,0.0,0.0,1732.0,0.0,0.0,0.0,32.0,100.0
26.65,0.0,0.0,1726.0,0.0,0.0,0.0,41.0,100.0
26.65,0.0,0.0,1728.0,0.0,0.0,0.0,37.0,100.0
26.65,0.0,0.0,1731.0,0.0,0.0,0.0,38.0,100.0
26.65,0.0,0.0,1738.0,0.0,0.0,0.0,44.0,100.0
26.61,0.0,0.0,1734.0,0.0,0.0,0.0,46.0,100.0
26.61,0.0,0.0,1733.0,0.0,0.0,0.0,44.0,100.0
26.59,0.0,0.0,1733.0,0.0,0.0,0.0,47.0,100.0
26.61,0.0,0.0,1728.0,0.0,0.0,0.0,48.0,100.0
26.61,0.0,0.0,1281.0,0.0,0.0,0.0,46.0,100.0
26.61,0.0,0.0,1733.0,0.0,0.0,0.0,46.0,100.0
26.61,0.0,0.0,1739.0,0.0,0.0,0.0,43.0,100.0
26.65,0.0,0.0,1726.0,0.0,0.0,0.0,45.0,100.0
26.65,0.0,0.0,1734.0,0.0,0.0,0.0,49.0,100.0
26.65,0.0,0.0,1712.0,0.0,0.0,0.0,49.0,100.0
26.55,0.0,0.0,1738.0,0.0,0.0,0.0,49.0,100.0
26.65,0.0,0.0,1728.0,0.0,0.0,0.0,53.0,100.0
26.65,0.0,0.0,1391.0,0.0,0.0,0.0,0.0,15.0
26.47,0.0,0.0,153.0,0.0,0.0,0.0,0.0,15.0
27.09,0.0,0.0,26.0,0.0,0.0,0.0,0.0,16.0
27.11,0.0,0.0,0.0,0.0,0.0,0.0,0.0,16.0
27.15,0.0,0.0,0.0,0.0,0.0,0.0,0.0,16.0
27.09,0.0,0.0,0.0,0.0,0.0,0.0,0.0,16.0
27.11,0.0,0.0,0.0,0.0,0.0,0.0,0.0,16.0
27.15,0.0,0.0,0.0,0.0,0.0,0.0,0.0,16.0
27.09,0.0,0.0,0.0,0.0,0.0,0.0,0.0,16.0
27.15,0.0,0.0,0.0,0.0,0.0,0.0,0.0,16.0
27.17,0.0,0.0,0.0,0.0,0.0,0.0,0.0,16.0
27.17,0.0,0.0,0.0,0.0,0.0,0.0,0.0,16.0
27.53,0.0,0.0,0.0,0.0,0.0,0.0,0.0,16.0
27.59,0.0,0.0,0.0,0.0,0.0,0.0,0.0,16.0
27.55,0.0,0.0,0.0,0.0,0.0,0.0,0.0,16.0
27.09,0.0,0.0,0.0,0.0,0.0,0.0,0.0,16.0
27.03,0.0,0.0,0.0,0.0,0.0,0.0,0.0,16.0
27.09,0.0,0.0,0.0,0.0,0.0,0.0,0.0,16.0
27.09,0.0,0.0,0.0,0.0,0.0,0.0,0.0,16.0
27.09,0.0,0.0,0.0,0.0,0.0,0.0,0.0,16.0
27.15,0.0,0.0,0.0,0.0,0.0,0.0,0.0,16.0
27.21,0.0,0.0,0.0,0.0,0.0,0.0,0.0,16.0
27.11,0.0,0.0,0.0,0.0,0.0,0.0,0.0,16.0
27.21,0.0,0.0,0.0,0.0,0.0,0.0,0.0,16.0
27.17,0.0,0.0,0.0,0.0,0.0,0.0,0.0,16.0
27.21,0.0,0.0,0.0,0.0,0.0,0.0,0.0,16.0
27.21,0.0,0.0,0.0,0.0,0.0,0.0,0.0,16.0
27.21,0.0,0.0,0.0,0.0,0.0,0.0,0.0,16.0
27.21,0.0,0.0,0.0,0.0,0.0,0.0,0.0,16.0
27.17,0.0,0.0,0.0,0.0,0.0,0.0,0.0,16.0
27.17,0.0,0.0,0.0,0.0,0.0,0.0,0.0,16.0
27.15,0.0,0.0,0.0,0.0,0.0,0.0,0.0,16.0
27.11,0.0,0.0,0.0,0.0,0.0,0.0,0.0,16.0
27.11,0.0,0.0,0.0,0.0,0.0,0.0,0.0,16.0
27.15,0.0,0.0,0.0,0.0,0.0,0.0,0.0,16.0
27.11,0.0,0.0,0.0,0.0,0.0,0.0,0.0,16.0
27.21,0.0,0.0,0.0,0.0,0.0,0.0,0.0,16.0
27.23,0.0,0.0,0.0,0.0,0.0,0.0,0.0,16.0
27.21,0.0,0.0,0.0,0.0,0.0,0.0,0.0,16.0
27.21,0.0,0.0,0.0,0.0,0.0,0.0,0.0,16.0
27.21,0.0,0.0,0.0,0.0,0.0,0.0,0.0,15.0
27.17,0.0,0.0,0.0,0.0,0.0,0.0,0.0,15.0
27.11,0.0,0.0,0.0,0.0,0.0,0.0,0.0,15.0
27.21,0.0,0.0,0.0,0.0,0.0,0.0,0.0,15.0
27.21,0.0,0.0,0.0,0.0,0.0,0.0,0.0,15.0
27.21,0.0,0.0,0.0,0.0,0.0,0.0,0.0,15.0
27.05,0.0,0.0,0.0,0.0,0.0,0.0,0.0,15.0
26.77,0.0,0.0,0.0,0.0,0.0,0.0,0.0,15.0
26.53,0.0,0.0,0.0,0.0,0.0,0.0,0.0,15.0
26.59,0.0,0.0,0.0,0.0,0.0,0.0,0.0,15.0
26.53,0.0,0.0,0.0,0.0,0.0,0.0,0.0,24.0
26.59,0.0,0.0,0.0,0.0,0.0,0.0,0.0,33.0
26.77,0.0,0.0,0.0,0.0,0.0,0.0,0.0,43.0
26.77,0.0,0.0,0.0,0.0,0.0,0.0,0.0,53.0
26.67,0.0,0.0,0.0,0.0,0.0,0.0,0.0,62.0
26.77,0.0,0.0,0.0,0.0,0.0,0.0,0.0,72.0
26.67,0.0,0.0,0.0,0.0,189.0,0.0,936.0,82.0
26.59,0.0,162.0,0.0,0.0,773.0,0.0,1761.0,91.0
26.55,0.0,16.0,0.0,0.0,807.0,0.0,1761.0,95.0
26.67,0.0,220.0,0.0,0.0,666.0,0.0,1721.0,95.0
26.55,0.0,420.0,0.0,0.0,30.0,0.0,1461.0,96.0
26.61,0.0,558.0,0.0,0.0,0.0,0.0,1461.0,96.0
26.55,0.0,583.0,0.0,0.0,0.0,0.0,1433.0,96.0
26.53,0.0,592.0,0.0,0.0,0.0,0.0,1457.0,96.0
26.49,0.0,609.0,0.0,0.0,0.0,0.0,1469.0,96.0
26.49,0.0,557.0,0.0,0.0,0.0,0.0,1375.0,96.0
26.49,0.0,575.0,0.0,0.0,0.0,0.0,1277.0,96.0
26.47,0.0,617.0,0.0,0.0,0.0,0.0,1184.0,96.0
26.49,0.0,673.0,0.0,0.0,0.0,0.0,1197.0,96.0
26.49,0.0,672.0,0.0,0.0,0.0,0.0,995.0,96.0
26.49,0.0,665.0,0.0,0.0,0.0,0.0,1052.0,96.0
26.49,0.0,673.0,0.0,0.0,0.0,0.0,1064.0,100.0
26.49,0.0,662.0,0.0,0.0,0.0,0.0,1081.0,100.0
26.41,0.0,672.0,0.0,0.0,0.0,0.0,1073.0,100.0
26.47,0.0,669.0,0.0,0.0,0.0,0.0,1088.0,100.0
26.35,0.0,663.0,0.0,0.0,0.0,0.0,1080.0,100.0
26.47,0.0,673.0,0.0,0.0,0.0,0.0,1088.0,100.0
26.43,0.0,677.0,0.0,0.0,0.0,0.0,1080.0,100.0
26.43,0.0,672.0,0.0,0.0,0.0,0.0,1086.0,100.0
26.49,0.0,669.0,0.0,0.0,0.0,0.0,1083.0,100.0
26.43,0.0,677.0,0.0,0.0,0.0,0.0,1085.0,100.0
26.47,0.0,674.0,0.0,0.0,0.0,0.0,1090.0,100.0
26.47,0.0,673.0,0.0,0.0,0.0,0.0,1029.0,100.0
26.41,0.0,652.0,0.0,0.0,0.0,0.0,1102.0,100.0
26.35,0.0,656.0,0.0,0.0,0.0,0.0,1158.0,100.0
26.37,0.0,635.0,0.0,0.0,0.0,0.0,1224.0,100.0
26.41,0.0,608.0,0.0,0.0,0.0,0.0,1272.0,100.0
26.35,0.0,626.0,0.0,0.0,0.0,0.0,1279.0,100.0
26.37,0.0,624.0,0.0,0.0,292.0,0.0,1294.0,100.0
26.35,0.0,629.0,0.0,0.0,0.0,0.0,1297.0,100.0
26.35,0.0,561.0,0.0,0.0,0.0,0.0,1300.0,100.0
26.35,0.0,631.0,0.0,0.0,0.0,0.0,1303.0,100.0
26.35,0.0,631.0,0.0,0.0,0.0,0.0,1305.0,100.0
26.35,0.0,634.0,0.0,0.0,0.0,0.0,1308.0,100.0
26.31,0.0,640.0,0.0,0.0,0.0,0.0,1302.0,100.0
26.41,0.0,631.0,0.0,0.0,0.0,0.0,1319.0,100.0
26.35,0.0,573.0,0.0,0.0,0.0,0.0,1322.0,100.0
26.35,0.0,646.0,0.0,0.0,0.0,0.0,1319.0,100.0
26.31,0.0,637.0,0.0,0.0,0.0,0.0,1318.0,100.0
26.35,0.0,634.0,0.0,0.0,0.0,0.0,1324.0,100.0
26.35,0.0,635.0,0.0,0.0,0.0,0.0,1316.0,100.0
26.31,0.0,645.0,0.0,0.0,0.0,0.0,1322.0,100.0
26.35,0.0,670.0,0.0,0.0,0.0,0.0,1255.0,100.0
26.31,0.0,560.0,0.0,0.0,0.0,0.0,1348.0,100.0
26.35,0.0,585.0,0.0,0.0,0.0,0.0,1363.0,100.0
26.35,0.0,592.0,0.0,0.0,0.0,0.0,1365.0,100.0
26.31,0.0,595.0,0.0,0.0,0.0,0.0,1379.0,100.0
26.31,0.0,604.0,0.0,0.0,0.0,0.0,1389.0,100.0
26.35,0.0,599.0,0.0,0.0,0.0,0.0,1398.0,100.0
26.29,0.0,613.0,0.0,0.0,0.0,0.0,1395.0,100.0
26.27,0.0,590.0,0.0,0.0,0.0,0.0,1412.0,100.0
26.23,0.0,594.0,0.0,0.0,0.0,0.0,1417.0,100.0
26.35,0.0,595.0,0.0,0.0,0.0,0.0,1435.0,100.0
26.29,0.0,591.0,0.0,0.0,0.0,0.0,1432.0,100.0
26.23,0.0,579.0,0.0,0.0,0.0,0.0,1438.0,100.0
26.29,0.0,586.0,0.0,0.0,0.0,0.0,1429.0,100.0
26.29,0.0,585.0,0.0,0.0,0.0,0.0,1440.0,100.0
26.27,0.0,565.0,0.0,0.0,0.0,0.0,1434.0,100.0
26.31,0.0,581.0,0.0,0.0,0.0,0.0,1447.0,100.0
26.35,0.0,582.0,0.0,0.0,0.0,0.0,1526.0,100.0
26.31,0.0,587.0,0.0,0.0,0.0,0.0,1537.0,100.0
26.27,0.0,588.0,0.0,0.0,0.0,0.0,1543.0,100.0
26.27,0.0,585.0,0.0,0.0,0.0,0.0,1552.0,100.0
26.27,0.0,586.0,0.0,0.0,0.0,0.0,1553.0,100.0
26.27,0.0,592.0,0.0,0.0,0.0,0.0,1561.0,100.0
26.23,0.0,595.0,0.0,0.0,0.0,0.0,1585.0,100.0
26.27,0.0,595.0,0.0,0.0,0.0,0.0,1584.0,100.0
26.21,0.0,599.0,0.0,0.0,0.0,0.0,1609.0,100.0
26.29,0.0,608.0,0.0,0.0,0.0,0.0,1588.0,100.0
26.23,0.0,582.0,0.0,0.0,0.0,0.0,1630.0,100.0
26.29,0.0,592.0,0.0,0.0,0.0,0.0,1657.0,100.0
26.27,0.0,555.0,0.0,0.0,0.0,0.0,1713.0,100.0
26.27,0.0,511.0,0.0,0.0,0.0,0.0,1769.0,100.0
26.29,0.0,534.0,0.0,0.0,0.0,0.0,1818.0,100.0
26.27,0.0,542.0,0.0,0.0,0.0,0.0,1821.0,100.0
26.27,0.0,547.0,0.0,0.0,0.0,0.0,1826.0,100.0
26.27,0.0,556.0,0.0,0.0,0.0,0.0,1841.0,100.0
26.23,0.0,548.0,0.0,0.0,0.0,0.0,1850.0,100.0
26.23,0.0,564.0,0.0,0.0,0.0,0.0,1873.0,100.0
26.23,0.0,562.0,0.0,0.0,0.0,0.0,1891.0,100.0
26.23,0.0,556.0,0.0,0.0,0.0,0.0,1900.0,100.0
26.27,0.0,561.0,0.0,0.0,0.0,0.0,1946.0,100.0
26.21,0.0,570.0,0.0,0.0,0.0,0.0,1959.0,100.0
26.23,0.0,575.0,0.0,0.0,0.0,0.0,1973.0,100.0
26.23,0.0,577.0,0.0,0.0,0.0,0.0,1993.0,100.0
26.23,0.0,0.0,0.0,0.0,0.0,0.0,373.0,17.0
27.21,0.0,0.0,0.0,0.0,0.0,0.0,0.0,17.0
27.17,0.0,0.0,0.0,0.0,0.0,0.0,0.0,18.0
27.21,0.0,0.0,0.0,0.0,0.0,0.0,0.0,19.0
27.21,0.0,0.0,0.0,0.0,0.0,0.0,0.0,19.0
27.47,0.0,0.0,0.0,0.0,0.0,0.0,0.0,19.0
28.63,0.0,0.0,0.0,0.0,0.0,0.0,0.0,19.0
28.77,0.0,0.0,0.0,0.0,0.0,0.0,0.0,19.0
28.53,0.0,0.0,0.0,0.0,0.0,0.0,0.0,19.0
28.25,0.0,0.0,0.0,0.0,0.0,0.0,0.0,19.0
28.37,0.0,0.0,0.0,0.0,0.0,0.0,0.0,19.0
27.73,0.0,0.0,0.0,0.0,0.0,0.0,0.0,19.0
27.31,0.0,0.0,0.0,0.0,0.0,0.0,0.0,19.0
27.21,0.0,0.0,0.0,0.0,0.0,0.0,0.0,19.0
27.09,0.0,0.0,0.0,0.0,0.0,0.0,0.0,19.0
27.05,0.0,0.0,0.0,0.0,0.0,0.0,0.0,19.0
27.05,0.0,0.0,0.0,0.0,0.0,0.0,0.0,19.0
26.99,0.0,0.0,0.0,0.0,0.0,0.0,0.0,19.0
26.97,0.0,0.0,0.0,0.0,0.0,0.0,0.0,19.0
27.11,0.0,0.0,0.0,0.0,0.0,0.0,0.0,19.0
27.15,0.0,0.0,0.0,0.0,0.0,0.0,0.0,19.0
27.05,0.0,0.0,0.0,0.0,0.0,0.0,0.0,19.0
27.11,0.0,0.0,0.0,0.0,0.0,0.0,0.0,19.0
27.09,0.0,0.0,0.0,0.0,0.0,0.0,0.0,19.0
27.11,0.0,0.0,0.0,0.0,0.0,0.0,0.0,19.0
27.11,0.0,0.0,0.0,0.0,0.0,0.0,0.0,19.0
27.21,0.0,0.0,0.0,0.0,0.0,0.0,0.0,19.0
27.11,0.0,0.0,0.0,0.0,0.0,0.0,0.0,19.0
27.09,0.0,0.0,0.0,0.0,0.0,0.0,0.0,19.0
27.17,0.0,0.0,0.0,0.0,0.0,0.0,0.0,19.0
27.09,0.0,0.0,0.0,0.0,0.0,0.0,0.0,19.0
27.11,0.0,0.0,0.0,0.0,0.0,0.0,0.0,19.0
27.11,0.0,0.0,0.0,0.0,0.0,0.0,0.0,19.0
27.09,0.0,0.0,0.0,0.0,0.0,0.0,0.0,19.0
27.17,0.0,0.0,0.0,0.0,0.0,0.0,0.0,19.0
27.35,0.0,0.0,0.0,0.0,0.0,0.0,0.0,19.0
27.29,0.0,0.0,0.0,0.0,0.0,0.0,0.0,19.0
27.25,0.0,0.0,0.0,0.0,0.0,0.0,0.0,19.0
27.35,0.0,0.0,0.0,0.0,0.0,0.0,0.0,19.0
27.25,0.0,0.0,0.0,0.0,0.0,0.0,0.0,19.0
27.29,0.0,0.0,0.0,0.0,0.0,0.0,0.0,15.0
27.35,0.0,0.0,0.0,0.0,0.0,0.0,0.0,15.0
27.29,0.0,0.0,0.0,0.0,0.0,0.0,0.0,15.0
27.29,0.0,0.0,0.0,0.0,0.0,0.0,0.0,15.0
27.31,0.0,0.0,0.0,0.0,0.0,0.0,0.0,15.0
27.29,0.0,0.0,0.0,0.0,0.0,0.0,0.0,15.0
28.25,0.0,0.0,0.0,0.0,0.0,0.0,0.0,15.0
28.47,0.0,0.0,0.0,0.0,0.0,0.0,0.0,15.0
28.43,0.0,0.0,0.0,0.0,0.0,0.0,0.0,16.0
28.43,0.0,0.0,0.0,0.0,0.0,0.0,0.0,25.0
28.43,0.0,0.0,0.0,0.0,0.0,0.0,0.0,35.0
28.47,0.0,0.0,0.0,0.0,0.0,0.0,0.0,44.0
28.45,0.0,0.0,0.0,0.0,0.0,0.0,0.0,55.0
28.39,0.0,0.0,0.0,0.0,0.0,0.0,0.0,65.0
28.31,0.0,0.0,0.0,0.0,0.0,0.0,1906.0,74.0
28.27,0.0,0.0,0.0,0.0,0.0,0.0,2356.0,83.0
28.23,0.0,0.0,0.0,0.0,0.0,0.0,2366.0,92.0
28.27,0.0,0.0,0.0,0.0,0.0,0.0,2427.0,100.0
28.19,0.0,0.0,0.0,0.0,0.0,0.0,2443.0,100.0
28.25,0.0,0.0,0.0,0.0,0.0,0.0,2453.0,100.0
28.25,0.0,0.0,0.0,0.0,0.0,0.0,2508.0,100.0
28.27,0.0,0.0,0.0,0.0,0.0,0.0,2526.0,100.0
28.23,0.0,0.0,0.0,0.0,0.0,0.0,2568.0,100.0
28.27,0.0,0.0,0.0,0.0,0.0,0.0,2497.0,100.0
28.27,0.0,0.0,0.0,0.0,0.0,0.0,2389.0,100.0
28.25,0.0,0.0,0.0,0.0,0.0,0.0,2302.0,100.0
28.27,0.0,0.0,0.0,0.0,0.0,0.0,2150.0,100.0
28.25,0.0,0.0,0.0,0.0,0.0,0.0,2120.0,100.0
28.27,0.0,0.0,0.0,0.0,0.0,0.0,2112.0,100.0
28.27,0.0,0.0,0.0,0.0,0.0,0.0,2026.0,100.0
28.25,0.0,0.0,0.0,0.0,0.0,0.0,2039.0,100.0
28.31,0.0,0.0,0.0,0.0,0.0,0.0,2052.0,100.0
28.27,0.0,0.0,0.0,0.0,0.0,0.0,2069.0,100.0
28.27,0.0,0.0,0.0,0.0,0.0,0.0,2063.0,100.0
28.25,0.0,0.0,0.0,0.0,0.0,0.0,2066.0,100.0
28.31,0.0,0.0,0.0,0.0,0.0,0.0,2077.0,100.0
28.31,0.0,0.0,0.0,0.0,0.0,0.0,2081.0,100.0
28.33,0.0,0.0,0.0,0.0,0.0,0.0,2086.0,100.0
28.27,0.0,0.0,0.0,0.0,0.0,0.0,2083.0,100.0
28.25,0.0,0.0,0.0,0.0,0.0,0.0,2074.0,100.0
28.27,0.0,0.0,0.0,0.0,0.0,0.0,2078.0,100.0
28.27,0.0,0.0,0.0,0.0,0.0,0.0,2081.0,100.0
28.25,0.0,0.0,0.0,0.0,0.0,0.0,2082.0,100.0
28.23,0.0,0.0,0.0,0.0,0.0,0.0,2088.0,100.0
28.23,0.0,0.0,0.0,0.0,0.0,0.0,2102.0,100.0
28.23,0.0,0.0,0.0,0.0,0.0,0.0,2102.0,100.0
28.25,0.0,0.0,0.0,0.0,0.0,0.0,2103.0,100.0
28.25,0.0,0.0,0.0,0.0,0.0,0.0,2105.0,100.0
28.19,0.0,0.0,0.0,0.0,0.0,0.0,2111.0,100.0
28.23,0.0,0.0,0.0,0.0,0.0,0.0,2116.0,100.0
28.25,0.0,0.0,0.0,0.0,0.0,0.0,2125.0,100.0
28.23,0.0,0.0,0.0,0.0,0.0,0.0,2122.0,100.0
28.23,0.0,0.0,0.0,0.0,0.0,0.0,2122.0,100.0
28.23,0.0,0.0,0.0,0.0,0.0,0.0,2126.0,100.0
28.19,0.0,0.0,0.0,0.0,0.0,0.0,2126.0,100.0
28.19,0.0,0.0,0.0,0.0,0.0,0.0,2133.0,100.0
28.19,0.0,0.0,0.0,0.0,0.0,0.0,2133.0,100.0
28.23,0.0,0.0,0.0,0.0,0.0,0.0,2130.0,100.0
28.23,0.0,0.0,0.0,0.0,0.0,0.0,2133.0,100.0
28.23,0.0,0.0,0.0,0.0,0.0,0.0,2133.0,100.0
28.17,0.0,0.0,0.0,0.0,0.0,0.0,2133.0,100.0
28.19,0.0,0.0,0.0,0.0,0.0,0.0,2128.0,100.0
28.25,0.0,0.0,0.0,0.0,0.0,0.0,2133.0,100.0
28.23,0.0,0.0,0.0,0.0,0.0,0.0,2133.0,100.0
28.19,0.0,0.0,0.0,0.0,0.0,0.0,2144.0,100.0
28.19,0.0,0.0,0.0,0.0,0.0,0.0,2139.0,100.0
28.23,0.0,0.0,0.0,0.0,0.0,0.0,2133.0,100.0
28.23,0.0,0.0,0.0,0.0,0.0,0.0,2139.0,100.0
28.25,0.0,0.0,0.0,0.0,0.0,0.0,2146.0,100.0
28.19,0.0,0.0,0.0,0.0,0.0,0.0,2145.0,100.0
28.23,0.0,0.0,0.0,0.0,0.0,0.0,2145.0,100.0
28.25,0.0,0.0,0.0,0.0,0.0,0.0,2142.0,100.0
28.23,0.0,0.0,0.0,0.0,0.0,0.0,2147.0,100.0
28.25,0.0,0.0,0.0,0.0,0.0,0.0,2149.0,100.0
28.19,0.0,0.0,0.0,0.0,0.0,0.0,2147.0,100.0
28.23,0.0,0.0,0.0,0.0,0.0,0.0,2167.0,100.0
28.17,0.0,0.0,0.0,0.0,0.0,0.0,2172.0,100.0
28.25,0.0,0.0,0.0,0.0,0.0,0.0,2168.0,100.0
28.19,0.0,0.0,0.0,0.0,0.0,0.0,2164.0,100.0
28.17,0.0,0.0,0.0,0.0,0.0,0.0,2172.0,100.0
28.17,0.0,0.0,0.0,0.0,0.0,0.0,2177.0,100.0
28.23,0.0,0.0,0.0,0.0,0.0,0.0,2176.0,100.0
28.23,0.0,0.0,0.0,0.0,0.0,0.0,2175.0,100.0
28.17,0.0,0.0,0.0,0.0,0.0,0.0,2178.0,100.0
28.17,0.0,0.0,0.0,0.0,0.0,0.0,2178.0,100.0
28.19,0.0,0.0,0.0,0.0,0.0,0.0,2177.0,100.0
28.23,0.0,0.0,0.0,0.0,0.0,0.0,2181.0,100.0
28.23,0.0,0.0,0.0,0.0,0.0,0.0,2180.0,100.0
28.23,0.0,0.0,0.0,0.0,0.0,0.0,2176.0,100.0
28.17,0.0,0.0,0.0,0.0,0.0,0.0,2188.0,100.0
28.19,0.0,0.0,0.0,0.0,0.0,0.0,2180.0,100.0
28.23,0.0,0.0,0.0,0.0,0.0,0.0,2185.0,100.0
28.17,0.0,0.0,0.0,0.0,0.0,0.0,2211.0,100.0
28.23,0.0,0.0,0.0,0.0,0.0,432.0,2210.0,100.0
28.11,0.0,0.0,0.0,0.0,0.0,0.0,2205.0,100.0
28.17,0.0,0.0,0.0,0.0,0.0,0.0,2216.0,100.0
28.25,0.0,0.0,0.0,0.0,0.0,0.0,2214.0,100.0
28.17,0.0,0.0,0.0,0.0,0.0,0.0,2215.0,100.0
28.17,0.0,0.0,0.0,0.0,0.0,0.0,2219.0,100.0
28.19,0.0,0.0,0.0,0.0,0.0,0.0,2240.0,100.0
28.19,0.0,0.0,0.0,0.0,0.0,0.0,2245.0,100.0
28.17,0.0,0.0,0.0,0.0,0.0,0.0,2263.0,100.0
28.13,0.0,0.0,0.0,0.0,0.0,0.0,2270.0,100.0
28.19,0.0,0.0,0.0,0.0,0.0,0.0,2268.0,100.0
28.19,0.0,0.0,0.0,0.0,0.0,0.0,2265.0,17.0
28.31,0.0,0.0,0.0,0.0,0.0,0.0,0.0,27.0
27.21,0.0,0.0,0.0,0.0,0.0,0.0,0.0,35.0
27.23,0.0,0.0,0.0,0.0,0.0,0.0,0.0,35.0
27.23,0.0,0.0,0.0,0.0,0.0,0.0,0.0,35.0
27.21,0.0,0.0,0.0,0.0,0.0,0.0,0.0,35.0
27.21,0.0,0.0,0.0,0.0,0.0,0.0,0.0,35.0
27.59,0.0,0.0,0.0,0.0,0.0,0.0,0.0,35.0
27.49,0.0,0.0,0.0,0.0,0.0,0.0,0.0,35.0
27.49,0.0,0.0,0.0,0.0,0.0,0.0,0.0,35.0
27.37,0.0,0.0,0.0,0.0,0.0,0.0,0.0,35.0
27.09,0.0,0.0,0.0,0.0,0.0,0.0,0.0,35.0
27.11,0.0,0.0,0.0,0.0,0.0,0.0,0.0,35.0
27.11,0.0,0.0,0.0,0.0,0.0,0.0,0.0,35.0
27.17,0.0,0.0,0.0,0.0,0.0,0.0,0.0,35.0
27.21,0.0,0.0,0.0,0.0,0.0,0.0,0.0,35.0
27.21,0.0,0.0,0.0,0.0,0.0,0.0,0.0,35.0
27.25,0.0,0.0,0.0,0.0,0.0,0.0,0.0,35.0
27.23,0.0,0.0,0.0,0.0,0.0,0.0,0.0,35.0
27.23,0.0,0.0,0.0,0.0,0.0,0.0,0.0,35.0
27.21,0.0,0.0,0.0,0.0,0.0,0.0,0.0,35.0
27.37,0.0,0.0,0.0,0.0,0.0,0.0,0.0,35.0
27.25,0.0,0.0,0.0,0.0,0.0,0.0,0.0,35.0
27.23,0.0,0.0,0.0,0.0,0.0,0.0,0.0,35.0
27.29,0.0,0.0,0.0,0.0,0.0,0.0,0.0,35.0
27.29,0.0,0.0,0.0,0.0,0.0,0.0,0.0,35.0
27.31,0.0,0.0,0.0,0.0,0.0,0.0,0.0,35.0
27.31,0.0,0.0,0.0,0.0,0.0,0.0,0.0,35.0
27.29,0.0,0.0,0.0,0.0,0.0,0.0,0.0,35.0
27.29,0.0,0.0,0.0,0.0,0.0,0.0,0.0,35.0
27.25,0.0,0.0,0.0,0.0,0.0,0.0,0.0,35.0
27.11,0.0,0.0,0.0,0.0,0.0,0.0,0.0,35.0
27.03,0.0,0.0,0.0,0.0,0.0,0.0,0.0,35.0
27.03,0.0,0.0,0.0,0.0,0.0,0.0,0.0,35.0
26.99,0.0,0.0,0.0,0.0,0.0,0.0,0.0,35.0
27.03,0.0,0.0,0.0,0.0,0.0,0.0,0.0,35.0
27.09,0.0,0.0,0.0,0.0,0.0,0.0,0.0,35.0
27.23,0.0,0.0,0.0,0.0,0.0,0.0,0.0,35.0
27.23,0.0,0.0,0.0,0.0,0.0,0.0,0.0,35.0
27.23,0.0,0.0,0.0,0.0,0.0,0.0,0.0,35.0
27.23,0.0,0.0,0.0,0.0,0.0,0.0,0.0,35.0
27.23,0.0,0.0,0.0,0.0,0.0,0.0,0.0,35.0
27.23,0.0,0.0,0.0,0.0,0.0,0.0,0.0,15.0
27.21,0.0,0.0,0.0,0.0,0.0,0.0,0.0,15.0
27.23,0.0,0.0,0.0,0.0,0.0,0.0,0.0,15.0
27.23,0.0,0.0,0.0,0.0,0.0,0.0,0.0,15.0
27.25,0.0,0.0,0.0,0.0,0.0,0.0,0.0,15.0
27.17,0.0,0.0,0.0,0.0,0.0,0.0,0.0,15.0
27.21,0.0,0.0,0.0,0.0,0.0,0.0,0.0,15.0
27.17,0.0,0.0,0.0,0.0,0.0,0.0,0.0,15.0
27.21,0.0,0.0,0.0,0.0,0.0,0.0,0.0,15.0
27.23,0.0,0.0,0.0,0.0,0.0,0.0,0.0,15.0
27.59,0.0,0.0,0.0,0.0,0.0,0.0,0.0,15.0
27.35,0.0,0.0,0.0,0.0,0.0,0.0,0.0,15.0
27.53,0.0,0.0,0.0,0.0,0.0,0.0,0.0,15.0
27.53,0.0,0.0,0.0,0.0,0.0,0.0,0.0,18.0
27.53,0.0,0.0,0.0,0.0,0.0,0.0,0.0,27.0
27.53,0.0,0.0,0.0,0.0,0.0,0.0,0.0,36.0
27.55,0.0,0.0,0.0,0.0,0.0,0.0,0.0,46.0
27.55,0.0,0.0,0.0,0.0,0.0,0.0,0.0,55.0
27.59,0.0,0.0,0.0,0.0,0.0,0.0,0.0,64.0
27.55,0.0,0.0,0.0,0.0,0.0,0.0,0.0,73.0
27.55,0.0,0.0,0.0,0.0,0.0,16.0,1030.0,83.0
27.59,0.0,0.0,0.0,0.0,0.0,0.0,1958.0,89.0
27.55,0.0,0.0,0.0,0.0,0.0,0.0,2021.0,89.0
27.53,0.0,0.0,0.0,0.0,0.0,0.0,2064.0,97.0
27.53,0.0,0.0,0.0,0.0,0.0,0.0,2087.0,100.0
27.55,0.0,0.0,0.0,0.0,0.0,0.0,2094.0,100.0
27.59,0.0,0.0,0.0,0.0,0.0,0.0,2104.0,100.0
27.53,0.0,0.0,0.0,0.0,0.0,0.0,2104.0,100.0
27.49,0.0,0.0,0.0,0.0,0.0,0.0,2103.0,100.0
27.53,0.0,0.0,0.0,0.0,0.0,0.0,2124.0,100.0
27.47,0.0,0.0,0.0,0.0,0.0,0.0,2125.0,100.0
27.49,0.0,0.0,0.0,0.0,0.0,0.0,2081.0,100.0
27.47,0.0,0.0,0.0,0.0,0.0,0.0,2057.0,100.0
27.31,0.0,0.0,0.0,0.0,0.0,0.0,2069.0,100.0
27.49,0.0,0.0,0.0,0.0,0.0,0.0,2073.0,100.0
27.53,0.0,0.0,0.0,0.0,0.0,0.0,2081.0,100.0
27.53,0.0,0.0,0.0,0.0,0.0,0.0,2085.0,100.0
27.53,0.0,0.0,0.0,0.0,0.0,0.0,2086.0,100.0
27.55,0.0,0.0,0.0,0.0,0.0,0.0,2095.0,100.0
27.49,0.0,0.0,0.0,0.0,0.0,0.0,2087.0,100.0
27.47,0.0,0.0,0.0,0.0,0.0,0.0,2086.0,100.0
27.47,0.0,0.0,0.0,0.0,0.0,0.0,2081.0,100.0
27.31,0.0,0.0,0.0,0.0,0.0,0.0,2078.0,100.0
27.41,0.0,0.0,0.0,0.0,0.0,0.0,2091.0,100.0
27.37,0.0,0.0,0.0,0.0,0.0,0.0,2092.0,100.0
27.41,0.0,0.0,0.0,0.0,0.0,0.0,2092.0,100.0
27.35,0.0,0.0,0.0,0.0,0.0,0.0,2089.0,100.0
27.41,0.0,0.0,0.0,0.0,0.0,0.0,2086.0,100.0
27.47,0.0,0.0,0.0,0.0,0.0,0.0,2076.0,100.0
27.41,0.0,0.0,0.0,0.0,0.0,0.0,2083.0,100.0
27.31,0.0,0.0,0.0,0.0,0.0,0.0,2092.0,100.0
27.37,0.0,0.0,0.0,0.0,0.0,0.0,2081.0,100.0
27.43,0.0,0.0,0.0,0.0,0.0,0.0,2086.0,100.0
27.37,0.0,0.0,0.0,0.0,0.0,0.0,2085.0,100.0
27.43,0.0,0.0,0.0,0.0,0.0,0.0,2079.0,100.0
27.35,0.0,0.0,0.0,0.0,0.0,0.0,2089.0,100.0
27.35,0.0,0.0,0.0,0.0,0.0,0.0,2093.0,100.0
27.35,0.0,0.0,0.0,0.0,0.0,0.0,2095.0,100.0
27.31,0.0,0.0,0.0,0.0,0.0,0.0,2091.0,100.0
27.35,0.0,0.0,0.0,0.0,0.0,0.0,2101.0,100.0
27.43,0.0,0.0,0.0,0.0,0.0,0.0,2097.0,100.0
27.37,0.0,0.0,0.0,0.0,0.0,0.0,2090.0,100.0
27.29,0.0,0.0,0.0,0.0,0.0,0.0,2095.0,100.0
27.31,0.0,0.0,0.0,0.0,0.0,0.0,2102.0,100.0
27.35,0.0,0.0,0.0,0.0,0.0,0.0,2101.0,100.0
27.31,0.0,0.0,0.0,0.0,0.0,0.0,2092.0,100.0
27.35,0.0,0.0,0.0,0.0,0.0,0.0,2099.0,100.0
27.35,0.0,0.0,0.0,0.0,0.0,0.0,2097.0,100.0
27.31,0.0,0.0,0.0,0.0,0.0,0.0,2095.0,100.0
27.41,0.0,0.0,0.0,0.0,0.0,0.0,2103.0,100.0
27.41,0.0,0.0,0.0,0.0,0.0,0.0,2102.0,100.0
27.35,0.0,0.0,0.0,0.0,0.0,0.0,2093.0,100.0
27.37,0.0,0.0,0.0,0.0,0.0,0.0,2094.0,100.0
27.37,0.0,0.0,0.0,0.0,0.0,0.0,2090.0,100.0
27.29,0.0,0.0,0.0,0.0,0.0,0.0,2095.0,100.0
27.31,0.0,0.0,0.0,0.0,0.0,0.0,2092.0,100.0
27.37,0.0,0.0,0.0,0.0,0.0,0.0,2099.0,100.0
27.29,0.0,0.0,0.0,0.0,0.0,0.0,2095.0,100.0
27.35,0.0,0.0,0.0,0.0,0.0,0.0,2095.0,100.0
27.35,0.0,0.0,0.0,0.0,0.0,0.0,2101.0,100.0
27.37,0.0,0.0,0.0,0.0,0.0,0.0,2095.0,100.0
27.31,0.0,0.0,0.0,0.0,0.0,0.0,2108.0,100.0
27.31,0.0,0.0,0.0,0.0,0.0,0.0,2103.0,100.0
27.35,0.0,0.0,0.0,0.0,0.0,0.0,2107.0,100.0
27.31,0.0,0.0,0.0,0.0,0.0,0.0,2110.0,100.0
27.31,0.0,0.0,0.0,0.0,0.0,0.0,2112.0,100.0
27.35,0.0,0.0,0.0,0.0,0.0,0.0,2108.0,100.0
27.29,0.0,0.0,0.0,0.0,0.0,0.0,2104.0,100.0
27.29,0.0,0.0,0.0,0.0,0.0,0.0,2105.0,100.0
27.31,0.0,0.0,0.0,0.0,0.0,0.0,2108.0,100.0
27.41,0.0,0.0,0.0,0.0,0.0,0.0,2107.0,100.0
27.35,0.0,0.0,0.0,0.0,0.0,0.0,2107.0,100.0
27.31,0.0,0.0,0.0,0.0,0.0,0.0,2111.0,100.0
27.35,0.0,0.0,0.0,0.0,0.0,0.0,2112.0,100.0
27.35,0.0,0.0,0.0,0.0,0.0,0.0,2112.0,100.0
27.37,0.0,0.0,0.0,0.0,0.0,0.0,2112.0,100.0
27.37,0.0,0.0,0.0,0.0,0.0,0.0,2113.0,100.0
27.37,0.0,0.0,0.0,0.0,0.0,0.0,2117.0,100.0
27.41,0.0,0.0,0.0,0.0,0.0,0.0,2123.0,100.0
27.41,0.0,0.0,0.0,0.0,0.0,0.0,2125.0,100.0
27.37,0.0,0.0,0.0,0.0,0.0,0.0,2125.0,100.0
27.47,0.0,0.0,0.0,0.0,0.0,0.0,2123.0,100.0
27.47,0.0,0.0,0.0,0.0,0.0,0.0,2120.0,100.0
27.43,0.0,0.0,0.0,0.0,0.0,0.0,0.0,15.0
27.23,0.0,0.0,0.0,0.0,0.0,0.0,0.0,15.0
27.17,0.0,0.0,0.0,0.0,0.0,0.0,0.0,15.0
27.21,0.0,0.0,0.0,0.0,0.0,0.0,0.0,15.0
27.11,0.0,0.0,0.0,0.0,0.0,0.0,0.0,15.0
27.25,0.0,0.0,0.0,0.0,0.0,0.0,0.0,15.0
27.31,0.0,0.0,0.0,0.0,0.0,0.0,0.0,15.0
27.59,0.0,0.0,0.0,0.0,0.0,0.0,0.0,15.0
27.61,0.0,0.0,0.0,0.0,0.0,0.0,0.0,15.0
27.55,0.0,0.0,0.0,0.0,0.0,0.0,0.0,15.0
27.23,0.0,0.0,0.0,0.0,0.0,0.0,0.0,15.0
27.23,0.0,0.0,0.0,0.0,0.0,0.0,0.0,15.0
27.17,0.0,0.0,0.0,0.0,0.0,0.0,0.0,15.0
27.15,0.0,0.0,0.0,0.0,0.0,0.0,0.0,15.0
27.23,0.0,0.0,0.0,0.0,0.0,0.0,0.0,15.0
27.15,0.0,0.0,0.0,0.0,0.0,0.0,0.0,15.0
27.21,0.0,0.0,0.0,0.0,0.0,0.0,0.0,15.0
27.21,0.0,0.0,0.0,0.0,0.0,0.0,0.0,15.0
27.17,0.0,0.0,0.0,0.0,0.0,0.0,0.0,15.0
27.23,0.0,0.0,0.0,0.0,0.0,0.0,0.0,15.0
27.17,0.0,0.0,0.0,0.0,0.0,0.0,0.0,15.0
27.25,0.0,0.0,0.0,0.0,0.0,0.0,0.0,15.0
