tempMLX,FSR_A1,FSR_A2,FSR_A3,FSR_B1,FSR_B2,FSR_B3,FSR_C,porcAper
0.0,0.0,0.0,0.0,0.0,0.0,0.0,0.0,15.0
0.0,0.0,0.0,0.0,0.0,0.0,0.0,0.0,15.0
25.99,0.0,0.0,0.0,0.0,0.0,0.0,0.0,15.0
25.97,0.0,0.0,0.0,0.0,0.0,0.0,0.0,15.0
25.91,0.0,0.0,0.0,0.0,0.0,0.0,0.0,15.0
25.97,0.0,0.0,0.0,0.0,0.0,0.0,0.0,15.0
26.05,0.0,0.0,0.0,0.0,0.0,0.0,0.0,15.0
25.99,0.0,0.0,0.0,0.0,0.0,0.0,0.0,15.0
25.91,0.0,0.0,0.0,144.0,0.0,0.0,0.0,15.0
25.87,0.0,0.0,0.0,0.0,0.0,0.0,0.0,15.0
25.93,0.0,0.0,0.0,0.0,0.0,0.0,0.0,15.0
25.93,0.0,0.0,0.0,0.0,0.0,0.0,0.0,15.0
25.97,0.0,0.0,0.0,0.0,0.0,0.0,0.0,15.0
25.91,0.0,0.0,0.0,0.0,0.0,0.0,0.0,15.0
25.91,0.0,0.0,0.0,0.0,0.0,0.0,0.0,15.0
25.67,0.0,0.0,0.0,0.0,0.0,0.0,0.0,15.0
25.67,0.0,0.0,0.0,0.0,0.0,0.0,0.0,15.0
25.63,0.0,0.0,0.0,0.0,0.0,0.0,0.0,15.0
25.69,0.0,0.0,0.0,0.0,0.0,0.0,0.0,15.0
25.67,0.0,0.0,0.0,0.0,0.0,0.0,0.0,15.0
25.69,0.0,0.0,0.0,0.0,0.0,0.0,0.0,15.0
25.61,0.0,0.0,0.0,0.0,0.0,0.0,0.0,15.0
25.61,0.0,0.0,0.0,0.0,0.0,0.0,0.0,15.0
25.55,0.0,0.0,0.0,0.0,272.0,0.0,0.0,15.0
25.59,0.0,0.0,0.0,0.0,0.0,0.0,0.0,15.0
25.63,0.0,0.0,0.0,0.0,0.0,0.0,0.0,15.0
25.61,0.0,0.0,0.0,0.0,0.0,0.0,0.0,15.0
25.63,0.0,0.0,0.0,0.0,0.0,0.0,0.0,15.0
25.61,0.0,0.0,0.0,0.0,0.0,0.0,0.0,15.0
25.63,0.0,0.0,0.0,0.0,0.0,0.0,0.0,15.0
25.67,0.0,0.0,0.0,0.0,0.0,0.0,0.0,15.0
25.63,0.0,0.0,0.0,0.0,0.0,0.0,0.0,15.0
25.63,0.0,0.0,0.0,0.0,0.0,0.0,0.0,15.0
25.61,0.0,0.0,0.0,0.0,0.0,0.0,0.0,15.0
25.67,0.0,0.0,0.0,0.0,0.0,0.0,0.0,15.0
25.55,0.0,0.0,0.0,0.0,0.0,0.0,0.0,15.0
25.61,0.0,0.0,0.0,0.0,0.0,0.0,0.0,15.0
25.59,0.0,0.0,0.0,0.0,0.0,0.0,0.0,15.0
25.63,0.0,0.0,0.0,0.0,0.0,0.0,0.0,15.0
25.67,0.0,0.0,0.0,0.0,0.0,0.0,0.0,15.0
25.63,0.0,0.0,0.0,0.0,0.0,0.0,0.0,15.0
25.61,0.0,0.0,0.0,0.0,0.0,0.0,0.0,15.0
25.67,0.0,0.0,0.0,0.0,0.0,0.0,0.0,15.0
25.67,0.0,0.0,0.0,0.0,0.0,0.0,0.0,15.0
25.67,0.0,0.0,0.0,0.0,0.0,0.0,0.0,15.0
25.63,0.0,0.0,0.0,0.0,0.0,0.0,0.0,15.0
25.67,0.0,0.0,0.0,0.0,0.0,0.0,0.0,15.0
25.63,0.0,0.0,0.0,0.0,0.0,0.0,0.0,15.0
25.63,0.0,0.0,0.0,0.0,0.0,0.0,0.0,15.0
25.61,0.0,0.0,0.0,0.0,0.0,0.0,0.0,15.0
25.59,0.0,0.0,0.0,0.0,0.0,0.0,0.0,15.0
25.53,0.0,0.0,0.0,0.0,0.0,0.0,0.0,15.0
25.55,0.0,0.0,0.0,0.0,0.0,0.0,0.0,15.0
25.53,0.0,0.0,0.0,0.0,0.0,0.0,0.0,15.0
25.61,0.0,0.0,0.0,0.0,0.0,0.0,0.0,15.0
25.53,0.0,0.0,0.0,0.0,0.0,0.0,0.0,15.0
25.63,0.0,0.0,0.0,0.0,0.0,0.0,0.0,15.0
25.61,0.0,0.0,0.0,0.0,0.0,0.0,0.0,15.0
25.59,0.0,0.0,0.0,0.0,0.0,0.0,0.0,15.0
25.61,0.0,0.0,0.0,0.0,0.0,0.0,0.0,15.0
25.61,0.0,0.0,0.0,0.0,0.0,0.0,0.0,15.0
25.55,0.0,0.0,0.0,0.0,0.0,0.0,0.0,15.0
25.53,0.0,0.0,0.0,0.0,0.0,0.0,0.0,15.0
25.59,0.0,0.0,0.0,0.0,0.0,0.0,0.0,15.0
25.53,0.0,0.0,0.0,0.0,0.0,0.0,0.0,15.0
25.55,0.0,0.0,0.0,0.0,0.0,0.0,0.0,15.0
25.55,0.0,0.0,0.0,0.0,0.0,0.0,0.0,15.0
25.59,0.0,0.0,0.0,0.0,0.0,0.0,0.0,15.0
25.55,0.0,0.0,0.0,0.0,0.0,0.0,0.0,15.0
25.55,0.0,0.0,0.0,0.0,0.0,0.0,0.0,15.0
25.55,0.0,0.0,0.0,0.0,0.0,0.0,0.0,15.0
25.41,0.0,0.0,0.0,0.0,0.0,0.0,0.0,15.0
25.55,0.0,0.0,0.0,0.0,0.0,0.0,0.0,15.0
25.49,0.0,0.0,0.0,0.0,0.0,0.0,0.0,15.0
25.55,0.0,0.0,0.0,0.0,0.0,0.0,0.0,15.0
25.55,0.0,0.0,0.0,0.0,0.0,0.0,0.0,15.0
25.53,0.0,0.0,0.0,0.0,0.0,0.0,0.0,15.0
25.53,0.0,0.0,0.0,0.0,0.0,0.0,0.0,15.0
25.53,0.0,0.0,0.0,0.0,0.0,0.0,0.0,15.0
25.55,0.0,0.0,0.0,0.0,0.0,0.0,0.0,15.0
25.59,0.0,0.0,0.0,0.0,0.0,0.0,0.0,15.0
25.55,0.0,0.0,0.0,0.0,0.0,0.0,0.0,15.0
25.53,0.0,0.0,0.0,0.0,0.0,0.0,0.0,15.0
25.49,0.0,0.0,98.0,0.0,0.0,0.0,0.0,15.0
25.53,0.0,0.0,0.0,0.0,0.0,0.0,0.0,15.0
25.61,0.0,0.0,0.0,0.0,0.0,0.0,0.0,15.0
25.59,0.0,0.0,0.0,0.0,0.0,0.0,0.0,15.0
25.61,0.0,0.0,0.0,0.0,0.0,0.0,0.0,15.0
25.59,0.0,0.0,0.0,0.0,0.0,0.0,0.0,15.0
25.59,0.0,0.0,0.0,0.0,0.0,0.0,0.0,15.0
25.61,0.0,0.0,0.0,0.0,0.0,0.0,0.0,15.0
25.61,0.0,0.0,0.0,0.0,0.0,0.0,0.0,15.0
25.67,0.0,0.0,0.0,0.0,0.0,0.0,0.0,15.0
25.67,0.0,0.0,0.0,0.0,0.0,0.0,0.0,15.0
25.63,0.0,0.0,0.0,0.0,0.0,0.0,0.0,15.0
25.59,0.0,0.0,0.0,0.0,0.0,0.0,0.0,15.0
25.67,0.0,0.0,0.0,0.0,0.0,0.0,0.0,15.0
25.59,0.0,0.0,0.0,0.0,0.0,0.0,0.0,15.0
25.55,0.0,0.0,0.0,0.0,0.0,0.0,0.0,15.0
25.59,0.0,0.0,0.0,0.0,0.0,0.0,0.0,15.0
25.59,0.0,0.0,0.0,0.0,0.0,0.0,0.0,15.0
25.61,0.0,0.0,0.0,0.0,0.0,0.0,0.0,15.0
25.59,0.0,0.0,0.0,0.0,0.0,0.0,0.0,15.0
25.53,0.0,0.0,0.0,0.0,0.0,0.0,0.0,15.0
25.55,0.0,0.0,0.0,0.0,0.0,0.0,0.0,15.0
25.53,0.0,0.0,0.0,0.0,0.0,0.0,0.0,15.0
25.61,0.0,0.0,0.0,0.0,0.0,0.0,0.0,15.0
25.43,0.0,0.0,0.0,0.0,0.0,0.0,0.0,15.0
25.53,0.0,0.0,0.0,0.0,0.0,0.0,0.0,15.0
25.53,0.0,0.0,0.0,0.0,0.0,0.0,0.0,15.0
25.49,240.0,0.0,0.0,0.0,0.0,0.0,0.0,15.0
25.43,0.0,0.0,0.0,0.0,0.0,0.0,0.0,15.0
25.55,0.0,0.0,0.0,0.0,0.0,0.0,0.0,15.0
25.53,0.0,0.0,0.0,0.0,0.0,0.0,0.0,15.0
25.61,0.0,0.0,0.0,0.0,0.0,0.0,0.0,15.0
25.61,0.0,0.0,240.0,0.0,0.0,0.0,0.0,15.0
25.55,0.0,0.0,0.0,0.0,0.0,0.0,0.0,15.0
25.55,0.0,0.0,0.0,0.0,0.0,0.0,0.0,15.0
25.49,0.0,0.0,0.0,0.0,0.0,0.0,0.0,15.0
25.47,0.0,0.0,0.0,0.0,0.0,0.0,0.0,15.0
25.59,0.0,0.0,0.0,0.0,0.0,0.0,0.0,15.0
25.67,0.0,0.0,0.0,0.0,0.0,0.0,0.0,15.0
25.69,0.0,0.0,0.0,0.0,0.0,0.0,0.0,15.0
25.61,0.0,0.0,0.0,0.0,0.0,0.0,0.0,15.0
25.73,0.0,0.0,0.0,0.0,0.0,0.0,0.0,15.0
25.61,0.0,0.0,0.0,0.0,0.0,0.0,0.0,15.0
25.67,0.0,0.0,0.0,0.0,0.0,0.0,0.0,15.0
25.69,0.0,0.0,0.0,0.0,0.0,0.0,0.0,15.0
25.69,0.0,0.0,0.0,0.0,0.0,0.0,0.0,15.0
25.63,0.0,0.0,0.0,0.0,0.0,0.0,0.0,15.0
25.67,0.0,0.0,0.0,0.0,0.0,0.0,0.0,15.0
25.73,0.0,0.0,0.0,0.0,0.0,0.0,0.0,15.0
25.67,0.0,0.0,0.0,0.0,0.0,0.0,0.0,15.0
25.67,0.0,0.0,0.0,0.0,0.0,0.0,0.0,15.0
25.73,0.0,0.0,0.0,0.0,0.0,0.0,0.0,15.0
25.67,0.0,0.0,0.0,0.0,0.0,0.0,0.0,15.0
25.69,0.0,0.0,0.0,0.0,0.0,0.0,0.0,15.0
25.61,0.0,0.0,0.0,0.0,0.0,0.0,0.0,15.0
25.25,0.0,0.0,0.0,0.0,0.0,0.0,0.0,15.0
25.31,0.0,0.0,0.0,0.0,0.0,0.0,0.0,15.0
25.29,0.0,0.0,0.0,0.0,0.0,0.0,0.0,15.0
25.29,0.0,0.0,0.0,0.0,0.0,0.0,0.0,15.0
25.25,0.0,0.0,0.0,0.0,0.0,0.0,0.0,15.0
25.35,0.0,0.0,0.0,0.0,0.0,0.0,0.0,15.0
25.41,0.0,0.0,0.0,0.0,0.0,0.0,0.0,23.0
25.35,0.0,0.0,0.0,0.0,0.0,0.0,0.0,32.0
25.35,0.0,0.0,0.0,0.0,0.0,0.0,0.0,42.0
25.43,0.0,0.0,0.0,0.0,0.0,0.0,0.0,51.0
25.35,0.0,0.0,0.0,0.0,0.0,0.0,0.0,60.0
25.43,0.0,0.0,0.0,0.0,0.0,0.0,0.0,70.0
25.41,0.0,0.0,0.0,0.0,0.0,0.0,0.0,80.0
25.41,0.0,0.0,0.0,0.0,0.0,0.0,25.0,85.0
25.35,0.0,0.0,0.0,0.0,0.0,0.0,152.0,85.0
25.41,0.0,0.0,0.0,0.0,0.0,0.0,163.0,85.0
25.43,0.0,0.0,0.0,0.0,0.0,0.0,165.0,85.0
25.47,0.0,0.0,0.0,0.0,0.0,0.0,161.0,85.0
25.41,0.0,0.0,0.0,0.0,0.0,0.0,161.0,85.0
25.35,0.0,0.0,0.0,0.0,0.0,0.0,158.0,85.0
25.37,0.0,0.0,0.0,0.0,0.0,0.0,159.0,85.0
25.37,0.0,0.0,0.0,0.0,0.0,0.0,153.0,85.0
25.41,0.0,0.0,0.0,0.0,0.0,0.0,156.0,85.0
25.41,0.0,0.0,0.0,0.0,0.0,0.0,150.0,85.0
25.47,0.0,0.0,0.0,0.0,0.0,0.0,157.0,85.0
25.43,0.0,0.0,0.0,0.0,0.0,0.0,154.0,85.0
25.41,0.0,0.0,0.0,0.0,0.0,0.0,154.0,85.0
25.43,0.0,0.0,0.0,0.0,0.0,0.0,158.0,85.0
25.43,0.0,0.0,0.0,0.0,0.0,0.0,159.0,85.0
25.43,0.0,0.0,0.0,0.0,0.0,0.0,157.0,85.0
25.47,0.0,0.0,0.0,0.0,0.0,0.0,155.0,85.0
25.59,0.0,0.0,0.0,0.0,0.0,0.0,154.0,85.0
25.59,0.0,0.0,0.0,0.0,0.0,0.0,150.0,85.0
25.55,0.0,0.0,0.0,0.0,0.0,0.0,153.0,85.0
25.61,0.0,0.0,0.0,0.0,0.0,0.0,150.0,85.0
25.59,0.0,0.0,0.0,0.0,0.0,0.0,151.0,85.0
25.59,0.0,0.0,0.0,0.0,0.0,0.0,150.0,85.0
25.55,0.0,0.0,0.0,0.0,0.0,0.0,154.0,85.0
25.41,0.0,0.0,0.0,48.0,0.0,0.0,152.0,85.0
25.37,4.0,0.0,0.0,0.0,0.0,0.0,154.0,85.0
25.41,0.0,0.0,0.0,0.0,0.0,0.0,156.0,85.0
25.43,0.0,0.0,0.0,0.0,0.0,0.0,150.0,85.0
25.41,0.0,0.0,0.0,0.0,0.0,0.0,151.0,85.0
25.43,0.0,0.0,0.0,0.0,0.0,0.0,154.0,85.0
25.41,0.0,0.0,0.0,0.0,0.0,0.0,155.0,85.0
25.43,0.0,0.0,0.0,0.0,0.0,0.0,152.0,85.0
25.37,0.0,0.0,0.0,0.0,0.0,0.0,153.0,85.0
25.43,0.0,0.0,0.0,0.0,0.0,0.0,150.0,87.0
25.47,0.0,0.0,0.0,0.0,0.0,0.0,158.0,90.0
25.43,0.0,0.0,0.0,0.0,0.0,0.0,155.0,90.0
25.53,0.0,0.0,0.0,0.0,0.0,0.0,145.0,90.0
25.49,0.0,0.0,0.0,0.0,0.0,0.0,151.0,90.0
25.41,0.0,0.0,0.0,0.0,0.0,0.0,157.0,90.0
25.49,0.0,0.0,0.0,0.0,0.0,0.0,154.0,90.0
25.55,0.0,0.0,0.0,0.0,0.0,0.0,154.0,90.0
25.43,0.0,0.0,0.0,0.0,0.0,0.0,151.0,90.0
25.47,0.0,0.0,0.0,0.0,0.0,0.0,157.0,90.0
25.47,0.0,0.0,0.0,0.0,0.0,0.0,150.0,90.0
25.47,0.0,0.0,0.0,0.0,0.0,0.0,152.0,90.0
25.47,0.0,0.0,0.0,0.0,0.0,0.0,160.0,90.0
25.47,0.0,0.0,0.0,0.0,0.0,0.0,165.0,90.0
25.43,0.0,0.0,0.0,0.0,0.0,0.0,168.0,90.0
25.47,0.0,0.0,0.0,0.0,0.0,0.0,160.0,90.0
25.49,0.0,0.0,0.0,0.0,0.0,0.0,165.0,90.0
25.49,0.0,0.0,0.0,0.0,0.0,0.0,159.0,90.0
25.53,0.0,0.0,0.0,0.0,0.0,0.0,166.0,90.0
25.49,0.0,0.0,0.0,0.0,0.0,0.0,162.0,90.0
25.55,0.0,0.0,0.0,0.0,0.0,0.0,161.0,90.0
25.55,0.0,0.0,0.0,0.0,0.0,0.0,161.0,90.0
25.59,0.0,0.0,0.0,0.0,0.0,0.0,164.0,90.0
25.49,0.0,0.0,0.0,0.0,0.0,0.0,166.0,90.0
25.55,0.0,0.0,0.0,0.0,0.0,0.0,159.0,90.0
25.49,0.0,0.0,0.0,0.0,0.0,0.0,164.0,90.0
25.53,0.0,0.0,0.0,0.0,0.0,0.0,161.0,90.0
25.55,0.0,0.0,0.0,0.0,0.0,0.0,174.0,90.0
25.55,0.0,0.0,0.0,0.0,0.0,0.0,164.0,90.0
25.49,0.0,0.0,0.0,0.0,0.0,0.0,165.0,90.0
25.47,0.0,0.0,0.0,0.0,0.0,0.0,167.0,90.0
25.47,0.0,0.0,0.0,0.0,0.0,0.0,170.0,90.0
25.43,0.0,0.0,0.0,0.0,0.0,0.0,175.0,90.0
25.43,0.0,0.0,0.0,0.0,0.0,0.0,168.0,90.0
25.49,0.0,0.0,0.0,0.0,32.0,0.0,166.0,90.0
25.49,0.0,0.0,0.0,16.0,0.0,0.0,164.0,90.0
25.53,0.0,0.0,0.0,0.0,0.0,0.0,170.0,90.0
25.47,0.0,0.0,0.0,0.0,0.0,0.0,174.0,90.0
25.49,0.0,0.0,0.0,0.0,0.0,0.0,164.0,90.0
25.47,0.0,0.0,0.0,0.0,0.0,0.0,171.0,90.0
25.53,0.0,0.0,0.0,0.0,0.0,0.0,164.0,90.0
25.55,0.0,0.0,0.0,0.0,0.0,0.0,168.0,90.0
25.49,0.0,0.0,0.0,0.0,0.0,0.0,168.0,90.0
25.43,0.0,0.0,0.0,0.0,0.0,0.0,168.0,90.0
25.53,0.0,0.0,0.0,0.0,0.0,0.0,174.0,90.0
25.55,0.0,0.0,0.0,0.0,0.0,0.0,171.0,90.0
25.59,0.0,0.0,0.0,0.0,0.0,0.0,171.0,90.0
25.53,0.0,0.0,0.0,0.0,0.0,0.0,169.0,90.0
25.53,0.0,0.0,0.0,0.0,0.0,0.0,177.0,90.0
25.43,0.0,0.0,0.0,0.0,0.0,0.0,169.0,90.0
25.47,0.0,0.0,0.0,0.0,0.0,0.0,172.0,90.0
25.53,0.0,0.0,0.0,0.0,0.0,0.0,180.0,90.0
25.49,0.0,0.0,0.0,0.0,0.0,0.0,172.0,90.0
25.49,0.0,0.0,0.0,0.0,0.0,0.0,0.0,15.0
25.37,0.0,0.0,0.0,0.0,0.0,0.0,0.0,15.0
25.61,0.0,0.0,0.0,0.0,0.0,0.0,0.0,15.0
25.55,0.0,0.0,0.0,0.0,0.0,0.0,0.0,15.0
25.43,0.0,0.0,0.0,0.0,0.0,0.0,0.0,15.0
25.53,0.0,0.0,0.0,0.0,0.0,0.0,0.0,15.0
25.81,0.0,0.0,0.0,0.0,0.0,0.0,0.0,15.0
26.27,0.0,0.0,0.0,0.0,0.0,0.0,0.0,15.0
26.27,0.0,0.0,0.0,0.0,0.0,0.0,0.0,15.0
25.55,0.0,0.0,0.0,0.0,0.0,0.0,0.0,15.0
25.59,0.0,0.0,0.0,0.0,0.0,0.0,0.0,15.0
25.59,0.0,0.0,0.0,0.0,0.0,0.0,0.0,15.0
25.73,0.0,0.0,0.0,0.0,0.0,0.0,0.0,15.0
25.55,0.0,0.0,0.0,0.0,0.0,0.0,0.0,15.0
25.59,0.0,0.0,0.0,0.0,0.0,0.0,0.0,15.0
25.47,0.0,0.0,0.0,0.0,0.0,0.0,0.0,15.0
25.47,0.0,0.0,0.0,0.0,0.0,0.0,0.0,15.0
25.53,0.0,0.0,0.0,0.0,0.0,0.0,0.0,15.0
25.55,0.0,0.0,0.0,0.0,0.0,0.0,0.0,15.0
25.53,0.0,0.0,0.0,0.0,0.0,0.0,0.0,15.0
25.55,0.0,0.0,0.0,0.0,0.0,0.0,0.0,15.0
25.59,0.0,0.0,0.0,0.0,0.0,0.0,0.0,15.0
25.59,0.0,0.0,0.0,0.0,0.0,0.0,0.0,15.0
25.55,0.0,0.0,0.0,0.0,0.0,0.0,0.0,15.0
25.59,0.0,0.0,0.0,0.0,0.0,0.0,0.0,15.0
25.63,0.0,0.0,0.0,0.0,0.0,0.0,0.0,15.0
25.59,0.0,0.0,0.0,0.0,0.0,0.0,0.0,15.0
25.61,0.0,0.0,0.0,0.0,0.0,0.0,0.0,15.0
25.59,0.0,0.0,0.0,0.0,0.0,0.0,0.0,15.0
25.63,0.0,0.0,0.0,0.0,0.0,0.0,0.0,15.0
25.61,0.0,0.0,0.0,0.0,0.0,0.0,0.0,15.0
25.63,0.0,0.0,0.0,0.0,0.0,0.0,0.0,15.0
25.61,0.0,0.0,0.0,0.0,0.0,0.0,0.0,15.0
25.61,0.0,0.0,0.0,0.0,0.0,0.0,0.0,15.0
25.55,0.0,0.0,0.0,0.0,0.0,0.0,0.0,15.0
25.55,0.0,0.0,0.0,0.0,0.0,0.0,0.0,15.0
25.53,0.0,0.0,0.0,0.0,0.0,0.0,0.0,15.0
25.59,0.0,0.0,0.0,0.0,0.0,0.0,0.0,15.0
25.55,0.0,0.0,0.0,0.0,0.0,0.0,0.0,15.0
25.59,0.0,0.0,0.0,0.0,0.0,0.0,0.0,15.0
25.59,0.0,0.0,0.0,0.0,0.0,0.0,0.0,15.0
25.61,0.0,0.0,0.0,0.0,0.0,0.0,0.0,15.0
25.53,0.0,0.0,0.0,0.0,0.0,0.0,0.0,15.0
25.55,0.0,0.0,0.0,0.0,0.0,0.0,0.0,15.0
25.55,0.0,0.0,0.0,0.0,0.0,0.0,0.0,15.0
25.43,0.0,0.0,0.0,0.0,0.0,0.0,0.0,15.0
25.43,0.0,0.0,0.0,0.0,0.0,0.0,0.0,15.0
25.61,0.0,0.0,0.0,0.0,0.0,0.0,0.0,15.0
25.69,0.0,0.0,0.0,0.0,0.0,0.0,0.0,15.0
25.59,0.0,0.0,256.0,0.0,0.0,0.0,0.0,15.0
25.59,0.0,0.0,0.0,0.0,0.0,0.0,0.0,15.0
25.69,0.0,0.0,0.0,0.0,0.0,0.0,0.0,21.0
25.69,0.0,0.0,0.0,0.0,0.0,0.0,0.0,21.0
25.69,0.0,0.0,0.0,0.0,0.0,0.0,0.0,29.0
25.69,0.0,0.0,0.0,0.0,0.0,0.0,0.0,39.0
25.61,0.0,0.0,0.0,0.0,0.0,0.0,0.0,50.0
25.67,0.0,0.0,0.0,0.0,0.0,0.0,0.0,61.0
25.69,0.0,0.0,0.0,0.0,0.0,0.0,0.0,70.0
25.63,0.0,0.0,0.0,0.0,0.0,0.0,0.0,79.0
25.59,0.0,0.0,0.0,0.0,0.0,0.0,0.0,87.0
25.59,0.0,0.0,0.0,0.0,0.0,0.0,654.0,97.0
25.61,0.0,245.0,0.0,0.0,0.0,0.0,1913.0,100.0
25.69,0.0,256.0,0.0,0.0,0.0,0.0,1993.0,100.0
25.63,0.0,219.0,0.0,0.0,0.0,0.0,2062.0,100.0
25.63,0.0,256.0,0.0,0.0,0.0,0.0,2073.0,100.0
25.63,0.0,257.0,0.0,0.0,0.0,0.0,2067.0,100.0
25.61,0.0,105.0,0.0,0.0,0.0,0.0,2077.0,100.0
25.69,0.0,0.0,0.0,0.0,0.0,0.0,1946.0,100.0
25.69,0.0,68.0,0.0,0.0,0.0,0.0,1958.0,100.0
25.67,0.0,79.0,0.0,0.0,0.0,0.0,1978.0,100.0
25.67,0.0,353.0,0.0,0.0,0.0,0.0,2287.0,100.0
25.75,0.0,368.0,0.0,0.0,0.0,0.0,2311.0,100.0
25.67,0.0,389.0,0.0,0.0,0.0,0.0,2337.0,100.0
25.67,0.0,397.0,0.0,0.0,0.0,0.0,2345.0,100.0
25.63,0.0,429.0,0.0,0.0,0.0,0.0,2363.0,100.0
25.63,0.0,435.0,0.0,0.0,0.0,0.0,2360.0,100.0
25.61,0.0,454.0,0.0,0.0,0.0,0.0,2346.0,100.0
25.69,0.0,467.0,0.0,0.0,0.0,0.0,2325.0,100.0
25.61,0.0,481.0,0.0,0.0,0.0,0.0,2305.0,100.0
25.63,0.0,477.0,0.0,0.0,0.0,0.0,2307.0,100.0
25.73,0.0,496.0,0.0,212.0,0.0,0.0,2292.0,100.0
25.73,0.0,511.0,0.0,0.0,0.0,0.0,2313.0,100.0
25.75,0.0,511.0,0.0,0.0,0.0,0.0,2311.0,100.0
25.73,0.0,528.0,0.0,0.0,0.0,0.0,2309.0,100.0
25.75,0.0,526.0,0.0,0.0,0.0,0.0,2323.0,100.0
25.69,0.0,458.0,0.0,0.0,0.0,0.0,2343.0,100.0
25.69,0.0,521.0,0.0,0.0,0.0,0.0,2355.0,100.0
25.59,0.0,505.0,0.0,0.0,0.0,0.0,2371.0,100.0
25.63,0.0,506.0,0.0,0.0,0.0,0.0,2378.0,100.0
25.67,0.0,497.0,0.0,0.0,0.0,0.0,2389.0,100.0
25.67,0.0,493.0,0.0,0.0,0.0,0.0,2389.0,100.0
25.69,0.0,482.0,0.0,0.0,0.0,0.0,2407.0,100.0
25.63,0.0,489.0,0.0,0.0,0.0,0.0,2432.0,100.0
25.63,0.0,490.0,0.0,0.0,0.0,0.0,2435.0,100.0
25.55,0.0,481.0,0.0,0.0,0.0,0.0,2450.0,100.0
25.63,0.0,468.0,0.0,0.0,0.0,0.0,2458.0,100.0
25.61,0.0,464.0,0.0,0.0,0.0,0.0,2454.0,100.0
25.67,0.0,511.0,0.0,0.0,0.0,0.0,2456.0,100.0
25.59,0.0,16.0,0.0,0.0,0.0,0.0,2474.0,100.0
25.63,0.0,458.0,0.0,0.0,0.0,0.0,2479.0,100.0
25.59,0.0,450.0,0.0,0.0,0.0,0.0,2483.0,100.0
25.63,0.0,408.0,0.0,0.0,0.0,0.0,2496.0,100.0
25.61,0.0,415.0,0.0,0.0,0.0,0.0,2497.0,100.0
25.49,0.0,458.0,0.0,0.0,0.0,0.0,2503.0,100.0
25.49,0.0,464.0,0.0,0.0,0.0,0.0,2508.0,100.0
25.47,0.0,452.0,0.0,0.0,0.0,0.0,2497.0,100.0
25.47,0.0,465.0,0.0,0.0,0.0,0.0,2502.0,100.0
25.49,0.0,405.0,0.0,0.0,0.0,0.0,2511.0,100.0
25.41,0.0,470.0,0.0,0.0,0.0,0.0,2509.0,100.0
25.47,0.0,430.0,0.0,0.0,0.0,0.0,2508.0,100.0
25.47,0.0,464.0,0.0,0.0,0.0,0.0,2499.0,100.0
25.47,0.0,459.0,0.0,0.0,0.0,0.0,2508.0,100.0
25.47,0.0,463.0,0.0,0.0,0.0,0.0,2511.0,100.0
25.47,0.0,463.0,0.0,0.0,0.0,0.0,2517.0,100.0
25.53,0.0,454.0,0.0,0.0,0.0,0.0,2509.0,100.0
25.53,0.0,463.0,0.0,0.0,0.0,0.0,2503.0,100.0
25.53,0.0,460.0,0.0,0.0,0.0,0.0,2511.0,100.0
25.59,0.0,466.0,0.0,0.0,0.0,0.0,2516.0,100.0
25.59,0.0,466.0,0.0,0.0,0.0,0.0,2513.0,100.0
25.61,0.0,448.0,0.0,0.0,0.0,0.0,2511.0,100.0
25.61,0.0,479.0,0.0,0.0,0.0,0.0,2520.0,100.0
25.53,0.0,462.0,0.0,0.0,0.0,0.0,2502.0,100.0
25.55,0.0,447.0,0.0,0.0,0.0,0.0,2503.0,100.0
25.49,0.0,467.0,0.0,72.0,0.0,0.0,2513.0,100.0
25.55,0.0,480.0,0.0,0.0,0.0,0.0,2510.0,100.0
25.55,0.0,464.0,0.0,0.0,0.0,0.0,2508.0,100.0
25.59,0.0,466.0,0.0,0.0,0.0,0.0,2512.0,100.0
25.61,0.0,469.0,0.0,0.0,0.0,0.0,2506.0,100.0
25.61,0.0,464.0,0.0,0.0,0.0,0.0,2519.0,100.0
25.63,0.0,464.0,0.0,0.0,0.0,0.0,2516.0,100.0
25.59,0.0,461.0,0.0,0.0,0.0,0.0,2520.0,100.0
25.61,0.0,465.0,0.0,0.0,0.0,0.0,2516.0,100.0
25.61,0.0,471.0,0.0,0.0,0.0,0.0,2518.0,100.0
25.63,0.0,456.0,0.0,0.0,0.0,0.0,2517.0,100.0
25.61,0.0,448.0,0.0,0.0,0.0,0.0,2522.0,100.0
25.61,0.0,464.0,0.0,0.0,0.0,0.0,2526.0,100.0
25.61,0.0,468.0,0.0,0.0,0.0,0.0,2523.0,100.0
25.67,0.0,462.0,0.0,0.0,0.0,0.0,2525.0,100.0
25.61,0.0,469.0,0.0,0.0,0.0,0.0,2518.0,100.0
25.59,0.0,48.0,0.0,0.0,0.0,0.0,2530.0,100.0
25.63,0.0,469.0,0.0,0.0,0.0,0.0,2529.0,100.0
25.55,0.0,471.0,0.0,0.0,0.0,0.0,2528.0,100.0
25.59,0.0,466.0,0.0,0.0,0.0,0.0,2527.0,100.0
25.63,0.0,476.0,0.0,0.0,0.0,0.0,2530.0,100.0
25.53,0.0,470.0,0.0,0.0,0.0,0.0,2526.0,100.0
25.67,0.0,418.0,0.0,0.0,0.0,0.0,2310.0,15.0
25.61,0.0,0.0,0.0,0.0,0.0,0.0,0.0,15.0
25.53,0.0,0.0,0.0,0.0,0.0,0.0,0.0,15.0
25.55,0.0,0.0,0.0,0.0,0.0,0.0,0.0,15.0
25.61,0.0,0.0,0.0,0.0,0.0,0.0,0.0,15.0
27.15,0.0,0.0,0.0,0.0,0.0,0.0,0.0,15.0
27.63,0.0,0.0,0.0,0.0,0.0,0.0,0.0,15.0
27.63,0.0,0.0,0.0,0.0,0.0,0.0,0.0,15.0
27.23,0.0,0.0,0.0,0.0,0.0,0.0,0.0,15.0
27.11,0.0,0.0,0.0,0.0,0.0,0.0,0.0,15.0
25.67,0.0,0.0,0.0,0.0,0.0,0.0,0.0,15.0
25.53,0.0,0.0,0.0,0.0,0.0,0.0,0.0,15.0
25.41,0.0,0.0,0.0,0.0,0.0,0.0,0.0,15.0
25.43,0.0,0.0,0.0,0.0,0.0,0.0,0.0,15.0
25.41,0.0,0.0,0.0,0.0,0.0,0.0,0.0,15.0
25.53,0.0,0.0,0.0,0.0,0.0,0.0,0.0,15.0
25.47,0.0,0.0,0.0,0.0,0.0,0.0,0.0,15.0
25.47,0.0,0.0,0.0,0.0,0.0,0.0,0.0,15.0
25.47,0.0,0.0,0.0,0.0,0.0,0.0,0.0,15.0
25.37,0.0,0.0,0.0,0.0,0.0,0.0,0.0,15.0
25.41,0.0,0.0,0.0,0.0,0.0,0.0,0.0,15.0
25.37,0.0,0.0,0.0,0.0,0.0,0.0,0.0,15.0
25.41,0.0,0.0,0.0,0.0,0.0,0.0,0.0,15.0
25.43,0.0,0.0,0.0,0.0,0.0,0.0,0.0,15.0
25.43,0.0,0.0,0.0,0.0,0.0,0.0,0.0,15.0
25.47,0.0,0.0,0.0,0.0,0.0,0.0,0.0,15.0
25.53,0.0,0.0,0.0,0.0,0.0,0.0,0.0,15.0
25.43,0.0,0.0,0.0,0.0,0.0,0.0,0.0,15.0
25.49,0.0,0.0,0.0,0.0,0.0,0.0,0.0,15.0
25.49,0.0,0.0,0.0,0.0,0.0,0.0,0.0,15.0
25.49,0.0,0.0,0.0,0.0,0.0,0.0,0.0,15.0
25.55,0.0,0.0,0.0,0.0,0.0,0.0,0.0,15.0
25.47,0.0,0.0,0.0,0.0,0.0,0.0,0.0,15.0
25.43,0.0,0.0,0.0,0.0,0.0,0.0,0.0,15.0
25.49,0.0,0.0,0.0,0.0,0.0,0.0,0.0,15.0
25.47,0.0,0.0,0.0,0.0,0.0,0.0,0.0,15.0
25.47,0.0,0.0,0.0,0.0,0.0,0.0,0.0,15.0
25.47,0.0,0.0,0.0,0.0,0.0,0.0,0.0,15.0
25.53,0.0,0.0,0.0,0.0,0.0,0.0,0.0,15.0
25.53,0.0,0.0,0.0,0.0,0.0,0.0,0.0,15.0
25.49,0.0,0.0,0.0,0.0,0.0,0.0,0.0,15.0
25.47,0.0,0.0,0.0,0.0,0.0,0.0,0.0,15.0
25.41,0.0,0.0,0.0,0.0,0.0,0.0,0.0,15.0
25.47,0.0,0.0,0.0,0.0,0.0,0.0,0.0,15.0
25.73,0.0,0.0,0.0,0.0,0.0,0.0,0.0,15.0
26.15,0.0,0.0,0.0,0.0,0.0,0.0,0.0,15.0
27.29,0.0,0.0,0.0,0.0,0.0,0.0,0.0,15.0
33.61,0.0,0.0,0.0,0.0,0.0,0.0,0.0,15.0
37.25,0.0,0.0,0.0,0.0,0.0,0.0,0.0,15.0
37.87,0.0,0.0,0.0,0.0,0.0,0.0,0.0,15.0
38.33,0.0,0.0,0.0,0.0,0.0,0.0,0.0,15.0
38.11,0.0,0.0,0.0,0.0,0.0,0.0,0.0,23.0
38.25,0.0,0.0,0.0,0.0,0.0,0.0,0.0,32.0
38.19,0.0,0.0,0.0,0.0,0.0,0.0,0.0,42.0
38.53,0.0,0.0,0.0,0.0,0.0,0.0,0.0,52.0
38.37,0.0,0.0,0.0,0.0,0.0,0.0,0.0,62.0
38.25,0.0,0.0,0.0,0.0,0.0,0.0,783.0,72.0
37.95,0.0,0.0,0.0,0.0,963.0,0.0,2542.0,83.0
37.87,0.0,0.0,0.0,0.0,831.0,0.0,2638.0,86.0
37.85,0.0,0.0,0.0,0.0,639.0,0.0,2628.0,86.0
37.83,0.0,0.0,0.0,0.0,791.0,0.0,2677.0,86.0
37.71,0.0,0.0,0.0,0.0,828.0,0.0,2723.0,86.0
37.79,0.0,0.0,0.0,0.0,848.0,0.0,2728.0,86.0
37.79,0.0,0.0,0.0,0.0,842.0,0.0,2748.0,86.0
37.75,0.0,0.0,0.0,0.0,855.0,0.0,2742.0,86.0
37.75,0.0,0.0,0.0,40.0,850.0,0.0,2752.0,86.0
37.75,0.0,0.0,0.0,0.0,723.0,0.0,2640.0,86.0
37.71,0.0,0.0,0.0,0.0,673.0,0.0,2501.0,86.0
37.67,0.0,0.0,0.0,0.0,656.0,0.0,2478.0,86.0
37.67,0.0,0.0,0.0,0.0,689.0,0.0,2418.0,86.0
37.61,0.0,0.0,0.0,0.0,722.0,0.0,2360.0,86.0
37.69,0.0,0.0,0.0,0.0,768.0,0.0,2311.0,86.0
37.67,0.0,0.0,0.0,18.0,851.0,0.0,2285.0,86.0
37.67,0.0,17.0,0.0,0.0,925.0,0.0,2286.0,86.0
37.71,0.0,1.0,0.0,0.0,939.0,0.0,2260.0,86.0
37.63,0.0,10.0,0.0,0.0,1115.0,0.0,2263.0,86.0
37.63,0.0,4.0,0.0,0.0,1124.0,0.0,2281.0,86.0
37.69,0.0,12.0,0.0,0.0,1142.0,0.0,2307.0,86.0
37.69,0.0,0.0,0.0,0.0,1136.0,0.0,2318.0,86.0
37.71,0.0,16.0,0.0,0.0,1088.0,0.0,2327.0,86.0
37.75,0.0,5.0,0.0,0.0,1054.0,0.0,2333.0,86.0
37.67,0.0,11.0,0.0,0.0,978.0,0.0,2385.0,86.0
37.71,0.0,0.0,0.0,0.0,936.0,0.0,2393.0,86.0
37.63,0.0,0.0,0.0,0.0,941.0,0.0,2399.0,86.0
37.69,0.0,0.0,0.0,0.0,941.0,0.0,2404.0,86.0
37.61,0.0,0.0,0.0,0.0,944.0,0.0,2406.0,86.0
37.69,0.0,0.0,0.0,0.0,922.0,0.0,2390.0,86.0
37.69,0.0,0.0,0.0,0.0,825.0,0.0,2464.0,86.0
37.75,0.0,0.0,0.0,0.0,754.0,0.0,2521.0,86.0
37.77,0.0,0.0,0.0,0.0,736.0,0.0,2552.0,86.0
37.91,0.0,0.0,0.0,0.0,710.0,0.0,2609.0,86.0
37.91,0.0,0.0,0.0,0.0,707.0,0.0,2637.0,86.0
37.87,0.0,0.0,0.0,0.0,720.0,0.0,2638.0,86.0
37.87,0.0,0.0,0.0,0.0,687.0,0.0,2654.0,86.0
37.79,0.0,0.0,0.0,0.0,725.0,0.0,2667.0,86.0
37.75,0.0,0.0,0.0,0.0,721.0,0.0,2676.0,86.0
37.71,0.0,0.0,0.0,0.0,720.0,0.0,2680.0,86.0
37.67,0.0,0.0,0.0,0.0,1078.0,0.0,2689.0,86.0
37.67,0.0,0.0,0.0,0.0,723.0,0.0,2690.0,86.0
37.63,0.0,0.0,0.0,0.0,719.0,0.0,2699.0,86.0
37.75,0.0,0.0,0.0,0.0,724.0,0.0,2687.0,86.0
37.63,0.0,0.0,0.0,0.0,724.0,0.0,2693.0,86.0
37.71,0.0,0.0,0.0,0.0,723.0,0.0,2697.0,86.0
37.75,0.0,0.0,0.0,0.0,723.0,0.0,2694.0,86.0
37.71,0.0,0.0,0.0,0.0,671.0,0.0,2675.0,86.0
37.71,0.0,0.0,0.0,0.0,645.0,0.0,2636.0,86.0
37.69,0.0,0.0,0.0,0.0,630.0,0.0,2604.0,86.0
37.69,0.0,0.0,0.0,0.0,650.0,0.0,2549.0,86.0
37.69,0.0,0.0,0.0,0.0,688.0,0.0,2488.0,86.0
37.77,0.0,0.0,0.0,0.0,685.0,0.0,2508.0,86.0
37.75,0.0,0.0,0.0,0.0,686.0,0.0,2511.0,87.0
37.75,0.0,0.0,0.0,0.0,699.0,0.0,2511.0,87.0
37.79,0.0,0.0,0.0,0.0,672.0,0.0,2551.0,87.0
37.87,0.0,0.0,0.0,0.0,663.0,0.0,2530.0,87.0
37.91,0.0,0.0,0.0,0.0,651.0,0.0,2514.0,87.0
37.91,0.0,0.0,0.0,0.0,617.0,0.0,2583.0,87.0
37.95,0.0,0.0,0.0,0.0,646.0,0.0,2637.0,87.0
38.01,0.0,0.0,0.0,0.0,659.0,0.0,2654.0,87.0
37.95,0.0,0.0,0.0,0.0,659.0,0.0,2675.0,87.0
37.91,0.0,0.0,0.0,0.0,647.0,0.0,2657.0,87.0
37.91,0.0,0.0,0.0,0.0,647.0,0.0,2637.0,87.0
37.77,0.0,0.0,0.0,0.0,640.0,0.0,2595.0,87.0
37.71,0.0,0.0,0.0,0.0,665.0,0.0,2547.0,87.0
37.79,0.0,0.0,0.0,0.0,716.0,0.0,2496.0,87.0
37.85,0.0,0.0,0.0,0.0,816.0,0.0,2479.0,87.0
37.85,0.0,0.0,0.0,0.0,835.0,0.0,2467.0,87.0
37.79,0.0,0.0,0.0,0.0,792.0,0.0,2466.0,87.0
37.75,0.0,0.0,0.0,0.0,768.0,0.0,2454.0,87.0
37.75,0.0,0.0,0.0,0.0,801.0,0.0,2515.0,87.0
37.75,0.0,0.0,0.0,0.0,795.0,0.0,2529.0,87.0
37.71,0.0,0.0,0.0,0.0,866.0,0.0,2526.0,87.0
37.71,0.0,0.0,0.0,0.0,804.0,0.0,2531.0,87.0
37.79,0.0,0.0,0.0,0.0,801.0,0.0,2538.0,87.0
37.79,0.0,0.0,0.0,0.0,807.0,0.0,2535.0,87.0
37.93,0.0,0.0,0.0,0.0,809.0,0.0,2531.0,87.0
37.95,0.0,0.0,0.0,0.0,813.0,0.0,2543.0,87.0
37.87,0.0,0.0,0.0,0.0,802.0,0.0,2539.0,87.0
37.93,0.0,0.0,0.0,0.0,802.0,0.0,2541.0,87.0
37.83,0.0,0.0,0.0,0.0,806.0,0.0,2547.0,87.0
37.79,0.0,0.0,0.0,0.0,805.0,0.0,2547.0,87.0
37.77,0.0,0.0,0.0,0.0,806.0,0.0,2555.0,87.0
37.71,0.0,0.0,0.0,0.0,815.0,0.0,2552.0,87.0
37.67,0.0,0.0,0.0,0.0,814.0,0.0,2546.0,87.0
37.67,0.0,0.0,0.0,0.0,814.0,0.0,2563.0,87.0
37.69,0.0,0.0,0.0,0.0,810.0,0.0,2556.0,87.0
37.67,0.0,0.0,0.0,0.0,0.0,0.0,1596.0,15.0
31.55,0.0,0.0,0.0,0.0,0.0,0.0,0.0,15.0
26.21,0.0,0.0,0.0,0.0,0.0,0.0,0.0,15.0
25.99,0.0,0.0,0.0,0.0,0.0,0.0,0.0,15.0
25.93,0.0,0.0,0.0,0.0,0.0,0.0,0.0,15.0
25.87,0.0,0.0,0.0,0.0,0.0,0.0,0.0,15.0
25.91,0.0,0.0,0.0,0.0,0.0,0.0,0.0,15.0
25.87,0.0,0.0,0.0,0.0,0.0,0.0,0.0,15.0
25.79,0.0,0.0,0.0,0.0,0.0,0.0,0.0,15.0
26.27,0.0,0.0,0.0,0.0,0.0,0.0,0.0,15.0
27.25,0.0,0.0,0.0,0.0,0.0,0.0,0.0,15.0
27.21,0.0,0.0,0.0,0.0,0.0,0.0,0.0,15.0
27.17,0.0,0.0,0.0,0.0,0.0,0.0,0.0,15.0
27.55,0.0,0.0,0.0,0.0,0.0,0.0,0.0,15.0
27.47,0.0,0.0,0.0,0.0,0.0,0.0,0.0,15.0
26.59,0.0,0.0,0.0,0.0,0.0,0.0,0.0,15.0
25.85,0.0,0.0,0.0,0.0,0.0,0.0,0.0,15.0
25.87,0.0,0.0,0.0,0.0,0.0,0.0,0.0,15.0
25.85,0.0,0.0,0.0,0.0,0.0,0.0,0.0,15.0
25.81,0.0,0.0,0.0,0.0,0.0,0.0,0.0,15.0
25.75,0.0,0.0,0.0,0.0,0.0,0.0,0.0,15.0
25.75,0.0,0.0,0.0,0.0,0.0,0.0,0.0,15.0
25.79,0.0,0.0,0.0,0.0,0.0,0.0,0.0,15.0
25.63,0.0,0.0,0.0,0.0,0.0,0.0,0.0,15.0
25.75,0.0,0.0,0.0,0.0,0.0,0.0,0.0,15.0
25.75,0.0,0.0,0.0,0.0,0.0,0.0,0.0,15.0
25.73,0.0,0.0,0.0,0.0,0.0,0.0,0.0,15.0
25.73,0.0,0.0,0.0,0.0,0.0,0.0,0.0,15.0
25.79,0.0,0.0,0.0,0.0,0.0,0.0,0.0,15.0
25.85,0.0,0.0,0.0,0.0,0.0,0.0,0.0,15.0
25.87,0.0,0.0,0.0,0.0,0.0,0.0,0.0,15.0
25.91,0.0,0.0,0.0,0.0,0.0,0.0,0.0,15.0
25.81,0.0,0.0,0.0,0.0,0.0,0.0,0.0,15.0
25.85,0.0,0.0,0.0,0.0,0.0,0.0,0.0,15.0
25.91,0.0,0.0,0.0,0.0,128.0,0.0,0.0,15.0
25.87,0.0,0.0,0.0,0.0,0.0,0.0,0.0,15.0
25.91,0.0,0.0,0.0,0.0,0.0,0.0,0.0,15.0
25.79,0.0,0.0,0.0,0.0,0.0,0.0,0.0,15.0
25.87,0.0,0.0,0.0,0.0,0.0,0.0,0.0,15.0
25.81,0.0,0.0,0.0,0.0,0.0,0.0,0.0,15.0
25.85,0.0,0.0,0.0,0.0,0.0,0.0,0.0,15.0
25.81,0.0,0.0,0.0,0.0,0.0,0.0,0.0,15.0
25.79,0.0,0.0,0.0,0.0,0.0,0.0,0.0,15.0
25.91,0.0,0.0,0.0,0.0,0.0,0.0,0.0,15.0
25.85,0.0,0.0,0.0,0.0,0.0,0.0,0.0,15.0
25.79,0.0,0.0,0.0,0.0,0.0,0.0,0.0,15.0
25.85,0.0,0.0,0.0,0.0,0.0,0.0,0.0,15.0
25.79,0.0,0.0,0.0,0.0,0.0,0.0,0.0,15.0
25.61,0.0,0.0,0.0,0.0,0.0,0.0,0.0,15.0
25.61,0.0,0.0,0.0,0.0,0.0,0.0,0.0,15.0
25.47,0.0,0.0,0.0,0.0,0.0,0.0,0.0,15.0
25.59,0.0,0.0,0.0,0.0,0.0,0.0,0.0,15.0
25.67,0.0,0.0,0.0,0.0,0.0,0.0,0.0,15.0
25.61,0.0,0.0,0.0,0.0,0.0,0.0,0.0,15.0
25.63,0.0,0.0,0.0,0.0,0.0,0.0,0.0,15.0
25.63,0.0,0.0,0.0,0.0,0.0,0.0,0.0,18.0
25.75,0.0,0.0,0.0,0.0,0.0,0.0,0.0,27.0
25.75,0.0,0.0,0.0,0.0,0.0,0.0,0.0,38.0
25.87,0.0,0.0,0.0,0.0,0.0,0.0,0.0,47.0
25.91,0.0,0.0,0.0,0.0,0.0,0.0,0.0,56.0
25.97,0.0,0.0,0.0,0.0,0.0,0.0,0.0,66.0
25.93,0.0,0.0,0.0,0.0,0.0,0.0,0.0,76.0
25.87,0.0,0.0,0.0,0.0,0.0,0.0,0.0,86.0
25.81,0.0,0.0,0.0,0.0,0.0,0.0,376.0,95.0
25.79,0.0,0.0,0.0,0.0,0.0,0.0,345.0,100.0
25.79,0.0,0.0,0.0,0.0,0.0,0.0,291.0,100.0
25.87,0.0,0.0,0.0,0.0,0.0,0.0,205.0,100.0
25.79,0.0,0.0,0.0,0.0,0.0,0.0,185.0,100.0
25.85,0.0,0.0,0.0,0.0,0.0,0.0,160.0,100.0
25.79,0.0,0.0,0.0,0.0,0.0,0.0,0.0,100.0
25.73,0.0,0.0,0.0,0.0,0.0,0.0,0.0,100.0
25.73,0.0,0.0,0.0,0.0,0.0,0.0,0.0,100.0
25.69,0.0,0.0,0.0,0.0,0.0,0.0,0.0,100.0
25.69,0.0,0.0,0.0,0.0,0.0,0.0,0.0,100.0
25.69,0.0,0.0,0.0,0.0,0.0,0.0,0.0,100.0
25.69,0.0,0.0,0.0,0.0,0.0,0.0,0.0,100.0
25.69,0.0,0.0,0.0,0.0,0.0,0.0,0.0,100.0
25.69,0.0,0.0,0.0,0.0,0.0,0.0,0.0,100.0
25.73,0.0,0.0,0.0,0.0,0.0,0.0,0.0,100.0
25.69,0.0,0.0,0.0,0.0,0.0,0.0,0.0,100.0
25.73,0.0,0.0,0.0,0.0,0.0,0.0,0.0,100.0
25.73,0.0,0.0,0.0,0.0,0.0,0.0,0.0,100.0
25.75,0.0,0.0,0.0,0.0,0.0,0.0,0.0,100.0
25.75,0.0,0.0,0.0,0.0,0.0,0.0,0.0,100.0
25.73,0.0,0.0,0.0,0.0,0.0,0.0,0.0,100.0
25.79,0.0,0.0,0.0,0.0,0.0,0.0,0.0,100.0
25.85,0.0,0.0,0.0,0.0,0.0,0.0,0.0,100.0
25.85,0.0,0.0,0.0,0.0,0.0,0.0,0.0,100.0
25.85,0.0,0.0,0.0,0.0,0.0,0.0,0.0,100.0
25.85,0.0,0.0,0.0,0.0,0.0,0.0,0.0,100.0
25.81,0.0,0.0,0.0,0.0,0.0,0.0,0.0,100.0
25.81,0.0,0.0,0.0,0.0,0.0,0.0,0.0,100.0
25.69,0.0,0.0,0.0,0.0,0.0,0.0,0.0,100.0
25.73,0.0,0.0,0.0,0.0,0.0,0.0,0.0,100.0
25.75,0.0,0.0,0.0,0.0,0.0,0.0,0.0,100.0
25.73,0.0,0.0,0.0,0.0,0.0,0.0,0.0,100.0
25.73,0.0,0.0,0.0,0.0,0.0,0.0,0.0,100.0
25.69,0.0,0.0,0.0,0.0,0.0,0.0,0.0,100.0
25.73,0.0,0.0,0.0,0.0,0.0,0.0,0.0,100.0
25.67,0.0,0.0,0.0,0.0,0.0,0.0,0.0,100.0
25.63,0.0,0.0,0.0,0.0,0.0,0.0,0.0,100.0
25.63,0.0,0.0,0.0,0.0,0.0,0.0,0.0,100.0
25.73,0.0,0.0,0.0,0.0,0.0,0.0,0.0,100.0
25.67,0.0,0.0,0.0,0.0,0.0,0.0,0.0,100.0
25.79,0.0,0.0,0.0,0.0,0.0,0.0,0.0,100.0
25.73,0.0,0.0,0.0,0.0,0.0,0.0,0.0,100.0
25.69,0.0,0.0,0.0,0.0,0.0,0.0,0.0,100.0
25.75,0.0,0.0,0.0,0.0,0.0,0.0,0.0,100.0
25.75,0.0,0.0,0.0,0.0,0.0,0.0,0.0,100.0
25.87,0.0,0.0,0.0,0.0,0.0,0.0,0.0,100.0
25.81,0.0,0.0,0.0,0.0,0.0,0.0,0.0,100.0
25.73,0.0,0.0,0.0,0.0,0.0,0.0,0.0,100.0
25.75,0.0,0.0,0.0,0.0,0.0,0.0,0.0,100.0
25.75,0.0,0.0,0.0,0.0,0.0,0.0,0.0,100.0
25.73,0.0,0.0,0.0,0.0,0.0,0.0,0.0,100.0
25.79,0.0,0.0,0.0,0.0,0.0,0.0,0.0,100.0
25.79,0.0,0.0,0.0,0.0,0.0,0.0,0.0,100.0
25.75,0.0,0.0,0.0,0.0,0.0,0.0,0.0,100.0
25.73,0.0,0.0,0.0,0.0,0.0,0.0,0.0,100.0
25.75,0.0,0.0,0.0,0.0,0.0,0.0,0.0,100.0
25.79,0.0,0.0,0.0,0.0,0.0,0.0,0.0,100.0
25.73,0.0,0.0,0.0,0.0,0.0,0.0,0.0,100.0
25.75,0.0,0.0,0.0,0.0,0.0,0.0,0.0,100.0
25.73,0.0,0.0,0.0,0.0,0.0,0.0,0.0,100.0
25.79,0.0,0.0,0.0,0.0,0.0,0.0,0.0,100.0
25.79,0.0,0.0,0.0,0.0,0.0,0.0,0.0,100.0
25.75,0.0,0.0,0.0,0.0,0.0,0.0,0.0,100.0
25.79,0.0,0.0,0.0,0.0,0.0,0.0,0.0,100.0
25.73,0.0,0.0,0.0,0.0,0.0,0.0,0.0,100.0
25.75,0.0,0.0,0.0,0.0,0.0,0.0,0.0,100.0
25.75,0.0,0.0,0.0,0.0,0.0,0.0,0.0,100.0
25.79,0.0,0.0,0.0,0.0,0.0,0.0,0.0,100.0
25.87,0.0,0.0,0.0,0.0,0.0,0.0,0.0,100.0
25.73,0.0,0.0,0.0,0.0,0.0,0.0,0.0,100.0
25.73,0.0,0.0,0.0,0.0,0.0,0.0,0.0,100.0
25.79,0.0,0.0,0.0,0.0,0.0,0.0,0.0,100.0
25.79,0.0,0.0,0.0,0.0,0.0,0.0,0.0,100.0
25.79,0.0,0.0,0.0,0.0,0.0,0.0,0.0,100.0
25.79,0.0,0.0,0.0,0.0,0.0,0.0,0.0,100.0
25.81,0.0,0.0,0.0,0.0,0.0,0.0,0.0,100.0
25.81,0.0,0.0,0.0,0.0,0.0,0.0,0.0,100.0
25.81,0.0,0.0,0.0,0.0,0.0,0.0,0.0,100.0
25.79,0.0,0.0,0.0,0.0,0.0,0.0,0.0,100.0
25.75,0.0,0.0,0.0,0.0,0.0,0.0,0.0,100.0
25.75,0.0,0.0,0.0,0.0,0.0,0.0,0.0,100.0
25.79,0.0,0.0,0.0,0.0,0.0,0.0,0.0,100.0
25.79,0.0,0.0,0.0,0.0,0.0,0.0,0.0,15.0
25.75,0.0,0.0,0.0,0.0,0.0,0.0,0.0,15.0
25.59,0.0,0.0,0.0,0.0,0.0,0.0,0.0,15.0
25.55,0.0,0.0,0.0,0.0,0.0,0.0,0.0,15.0
25.59,0.0,0.0,0.0,0.0,0.0,0.0,0.0,15.0
25.63,0.0,0.0,0.0,0.0,0.0,0.0,0.0,15.0
26.03,0.0,0.0,0.0,0.0,0.0,0.0,0.0,15.0
27.29,0.0,0.0,0.0,0.0,0.0,0.0,0.0,15.0
27.29,0.0,0.0,0.0,0.0,0.0,0.0,0.0,15.0
27.25,0.0,0.0,0.0,0.0,0.0,0.0,0.0,15.0
27.69,0.0,0.0,0.0,0.0,0.0,0.0,0.0,15.0
25.75,0.0,0.0,0.0,0.0,0.0,0.0,0.0,15.0
25.67,0.0,0.0,0.0,0.0,0.0,0.0,0.0,15.0
25.73,0.0,0.0,0.0,0.0,0.0,0.0,0.0,15.0
25.75,0.0,0.0,0.0,0.0,0.0,0.0,0.0,15.0
25.69,0.0,0.0,0.0,0.0,0.0,0.0,0.0,15.0
25.73,0.0,0.0,0.0,0.0,0.0,0.0,0.0,15.0
25.61,0.0,0.0,0.0,0.0,0.0,0.0,0.0,15.0
25.67,0.0,0.0,0.0,0.0,0.0,0.0,0.0,15.0
25.55,0.0,0.0,0.0,0.0,0.0,0.0,0.0,15.0
25.59,0.0,0.0,0.0,0.0,0.0,0.0,0.0,15.0
25.61,0.0,0.0,0.0,0.0,0.0,0.0,0.0,15.0
25.61,0.0,0.0,0.0,0.0,0.0,0.0,0.0,15.0
25.69,0.0,0.0,0.0,0.0,0.0,0.0,0.0,15.0
25.59,0.0,0.0,0.0,0.0,0.0,0.0,0.0,15.0
25.63,0.0,0.0,0.0,0.0,0.0,0.0,0.0,15.0
25.63,0.0,0.0,0.0,0.0,0.0,0.0,0.0,15.0
25.61,0.0,0.0,0.0,0.0,0.0,0.0,0.0,15.0
25.61,0.0,0.0,0.0,0.0,0.0,0.0,0.0,15.0
25.55,0.0,0.0,0.0,0.0,0.0,0.0,0.0,15.0
25.61,0.0,0.0,0.0,0.0,0.0,0.0,0.0,15.0
25.61,0.0,0.0,0.0,0.0,0.0,0.0,0.0,15.0
25.49,0.0,0.0,0.0,0.0,0.0,0.0,0.0,15.0
25.53,0.0,0.0,0.0,0.0,0.0,0.0,0.0,15.0
25.59,0.0,0.0,0.0,0.0,0.0,0.0,0.0,15.0
25.53,0.0,0.0,0.0,0.0,0.0,0.0,0.0,15.0
25.53,0.0,0.0,0.0,0.0,0.0,0.0,0.0,15.0
25.59,0.0,0.0,0.0,0.0,0.0,0.0,0.0,15.0
25.59,0.0,0.0,0.0,0.0,0.0,0.0,0.0,15.0
25.55,0.0,0.0,0.0,0.0,0.0,0.0,0.0,15.0
25.59,0.0,0.0,0.0,0.0,0.0,0.0,0.0,15.0
25.59,0.0,0.0,0.0,0.0,0.0,0.0,0.0,15.0
25.53,0.0,0.0,0.0,0.0,0.0,0.0,0.0,15.0
25.59,0.0,0.0,0.0,0.0,0.0,0.0,0.0,15.0
25.49,0.0,0.0,0.0,0.0,0.0,0.0,0.0,15.0
25.59,0.0,0.0,0.0,0.0,0.0,0.0,0.0,15.0
25.63,0.0,0.0,0.0,0.0,0.0,0.0,0.0,15.0
25.67,0.0,0.0,0.0,0.0,0.0,0.0,0.0,15.0
25.87,0.0,0.0,0.0,0.0,0.0,0.0,0.0,15.0
25.93,0.0,0.0,0.0,0.0,0.0,0.0,0.0,15.0
25.97,0.0,0.0,0.0,0.0,0.0,0.0,0.0,15.0
26.21,0.0,0.0,0.0,0.0,0.0,0.0,0.0,15.0
26.21,0.0,0.0,0.0,0.0,0.0,0.0,0.0,15.0
26.17,0.0,0.0,0.0,0.0,0.0,0.0,0.0,15.0
26.17,0.0,0.0,0.0,0.0,0.0,0.0,0.0,18.0
26.23,0.0,0.0,0.0,0.0,0.0,0.0,0.0,28.0
26.17,0.0,0.0,0.0,0.0,0.0,0.0,0.0,37.0
26.17,0.0,0.0,0.0,0.0,0.0,0.0,0.0,46.0
26.21,0.0,0.0,0.0,0.0,0.0,0.0,0.0,56.0
26.15,0.0,0.0,0.0,0.0,0.0,0.0,0.0,66.0
26.17,0.0,0.0,0.0,0.0,0.0,0.0,10.0,76.0
26.09,0.0,496.0,0.0,0.0,0.0,0.0,2286.0,85.0
26.15,0.0,526.0,0.0,0.0,0.0,0.0,2348.0,94.0
26.17,0.0,624.0,0.0,0.0,0.0,0.0,2339.0,100.0
26.17,0.0,678.0,0.0,0.0,0.0,0.0,2267.0,100.0
26.11,0.0,695.0,0.0,0.0,0.0,0.0,2355.0,100.0
26.09,0.0,658.0,0.0,0.0,0.0,0.0,2357.0,100.0
26.11,0.0,615.0,0.0,0.0,0.0,0.0,2517.0,100.0
26.05,0.0,533.0,0.0,0.0,0.0,0.0,2621.0,100.0
26.09,0.0,537.0,0.0,0.0,0.0,0.0,2628.0,100.0
26.11,0.0,531.0,0.0,0.0,0.0,0.0,2648.0,100.0
26.09,0.0,740.0,0.0,0.0,0.0,0.0,2945.0,100.0
26.17,0.0,765.0,0.0,0.0,0.0,0.0,2811.0,100.0
26.15,0.0,794.0,0.0,0.0,0.0,0.0,2869.0,100.0
26.17,0.0,817.0,0.0,0.0,0.0,0.0,2707.0,100.0
26.15,0.0,842.0,0.0,0.0,48.0,0.0,2715.0,100.0
26.17,0.0,853.0,0.0,0.0,16.0,0.0,2681.0,100.0
26.15,0.0,956.0,0.0,0.0,132.0,0.0,2670.0,100.0
26.15,0.0,871.0,0.0,0.0,156.0,12.0,2669.0,100.0
26.11,0.0,879.0,0.0,0.0,297.0,0.0,2657.0,100.0
26.15,0.0,871.0,0.0,0.0,330.0,0.0,2702.0,100.0
26.21,0.0,880.0,0.0,0.0,351.0,0.0,2719.0,100.0
26.11,0.0,869.0,0.0,0.0,356.0,0.0,2727.0,100.0
26.17,0.0,881.0,0.0,0.0,270.0,0.0,2715.0,100.0
26.15,0.0,877.0,0.0,0.0,193.0,0.0,2646.0,100.0
26.17,0.0,885.0,0.0,0.0,154.0,0.0,2702.0,100.0
26.15,0.0,892.0,0.0,0.0,276.0,0.0,2740.0,100.0
26.15,0.0,890.0,0.0,0.0,255.0,0.0,2747.0,100.0
26.11,0.0,885.0,0.0,0.0,139.0,0.0,2726.0,100.0
26.11,0.0,885.0,0.0,0.0,144.0,0.0,2752.0,100.0
26.15,0.0,881.0,0.0,0.0,105.0,0.0,2779.0,100.0
26.09,0.0,867.0,0.0,0.0,61.0,0.0,2829.0,100.0
26.05,0.0,816.0,0.0,0.0,11.0,0.0,2858.0,100.0
26.09,0.0,786.0,0.0,0.0,0.0,0.0,2927.0,100.0
26.09,0.0,752.0,0.0,0.0,0.0,0.0,3014.0,100.0
26.09,0.0,722.0,0.0,0.0,0.0,0.0,3020.0,100.0
26.03,0.0,794.0,0.0,0.0,0.0,0.0,3037.0,100.0
26.09,0.0,647.0,0.0,0.0,0.0,0.0,3054.0,100.0
26.09,0.0,666.0,0.0,0.0,0.0,0.0,3069.0,100.0
26.11,0.0,657.0,0.0,0.0,0.0,0.0,3073.0,100.0
26.09,0.0,654.0,0.0,0.0,0.0,0.0,3058.0,100.0
26.15,0.0,631.0,0.0,0.0,0.0,0.0,3083.0,100.0
26.17,0.0,654.0,0.0,0.0,0.0,0.0,2993.0,100.0
26.15,0.0,659.0,0.0,0.0,0.0,0.0,3050.0,100.0
26.15,0.0,655.0,0.0,0.0,0.0,0.0,3083.0,100.0
26.15,0.0,657.0,0.0,0.0,0.0,0.0,3086.0,100.0
26.15,0.0,656.0,0.0,0.0,0.0,0.0,3104.0,100.0
26.17,0.0,659.0,0.0,0.0,0.0,0.0,3102.0,100.0
26.15,0.0,651.0,0.0,0.0,0.0,0.0,3101.0,100.0
26.21,0.0,658.0,0.0,0.0,0.0,0.0,3109.0,100.0
26.17,0.0,661.0,0.0,0.0,0.0,0.0,3104.0,100.0
26.15,0.0,655.0,0.0,0.0,0.0,0.0,3099.0,100.0
26.15,0.0,652.0,0.0,0.0,0.0,0.0,3119.0,100.0
26.15,0.0,656.0,0.0,0.0,0.0,0.0,3118.0,100.0
26.17,0.0,645.0,0.0,0.0,0.0,0.0,3108.0,100.0
26.09,0.0,663.0,0.0,0.0,0.0,0.0,3112.0,100.0
26.11,0.0,659.0,0.0,0.0,0.0,0.0,3110.0,100.0
26.17,0.0,655.0,0.0,0.0,0.0,0.0,3110.0,100.0
26.11,0.0,660.0,0.0,0.0,0.0,0.0,3117.0,100.0
25.99,0.0,650.0,0.0,0.0,0.0,0.0,3118.0,100.0
26.05,0.0,661.0,0.0,0.0,0.0,0.0,3117.0,100.0
26.09,0.0,630.0,0.0,0.0,0.0,0.0,3114.0,100.0
26.05,0.0,651.0,0.0,0.0,0.0,0.0,3113.0,100.0
26.11,0.0,661.0,0.0,0.0,0.0,0.0,3122.0,100.0
26.11,0.0,656.0,0.0,0.0,0.0,0.0,3125.0,100.0
26.15,0.0,659.0,0.0,0.0,0.0,0.0,3123.0,100.0
26.09,0.0,657.0,0.0,0.0,0.0,0.0,3128.0,100.0
26.05,0.0,659.0,0.0,0.0,0.0,0.0,3120.0,100.0
26.05,0.0,665.0,0.0,0.0,0.0,0.0,3135.0,100.0
26.05,0.0,657.0,0.0,0.0,0.0,0.0,3125.0,100.0
26.03,0.0,661.0,0.0,0.0,0.0,0.0,3117.0,100.0
26.03,0.0,657.0,0.0,0.0,0.0,0.0,3120.0,100.0
26.09,0.0,656.0,0.0,0.0,0.0,0.0,3122.0,100.0
26.05,0.0,703.0,0.0,0.0,0.0,0.0,3126.0,100.0
25.97,0.0,657.0,0.0,0.0,0.0,0.0,3129.0,100.0
26.03,0.0,656.0,0.0,0.0,0.0,0.0,3132.0,100.0
25.99,0.0,662.0,0.0,0.0,0.0,0.0,3129.0,100.0
26.11,0.0,659.0,0.0,0.0,0.0,0.0,3123.0,100.0
25.97,0.0,668.0,0.0,0.0,0.0,0.0,3124.0,100.0
26.03,0.0,683.0,0.0,0.0,0.0,0.0,3126.0,100.0
25.99,0.0,658.0,0.0,0.0,0.0,0.0,3131.0,100.0
26.03,0.0,656.0,0.0,0.0,0.0,0.0,3137.0,100.0
26.05,0.0,668.0,0.0,0.0,0.0,0.0,3137.0,100.0
26.09,0.0,660.0,0.0,0.0,0.0,0.0,3131.0,100.0
26.03,0.0,670.0,0.0,0.0,0.0,0.0,3136.0,100.0
26.03,0.0,664.0,0.0,0.0,0.0,0.0,3135.0,100.0
26.05,0.0,663.0,0.0,0.0,0.0,0.0,3136.0,15.0
26.15,0.0,0.0,0.0,0.0,0.0,0.0,50.0,15.0
25.75,0.0,0.0,0.0,0.0,0.0,0.0,0.0,15.0
25.79,0.0,0.0,0.0,0.0,0.0,0.0,0.0,15.0
25.61,0.0,0.0,0.0,0.0,0.0,0.0,0.0,15.0
25.61,0.0,0.0,0.0,0.0,0.0,0.0,0.0,15.0
25.75,0.0,0.0,0.0,0.0,0.0,0.0,0.0,15.0
26.55,0.0,0.0,0.0,0.0,0.0,0.0,0.0,15.0
26.87,0.0,0.0,0.0,0.0,0.0,0.0,0.0,15.0
27.21,0.0,0.0,0.0,0.0,0.0,0.0,0.0,15.0
27.21,0.0,0.0,0.0,0.0,0.0,0.0,0.0,15.0
27.25,0.0,0.0,0.0,0.0,0.0,0.0,0.0,15.0
27.37,0.0,0.0,0.0,0.0,0.0,0.0,0.0,15.0
26.93,0.0,0.0,0.0,0.0,0.0,0.0,0.0,15.0
26.11,0.0,0.0,0.0,0.0,0.0,0.0,0.0,15.0
25.75,0.0,0.0,0.0,0.0,0.0,0.0,0.0,15.0
25.63,0.0,0.0,0.0,0.0,0.0,0.0,0.0,15.0
25.49,0.0,0.0,0.0,0.0,0.0,0.0,0.0,15.0
25.47,0.0,0.0,0.0,0.0,0.0,0.0,0.0,15.0
25.49,0.0,0.0,0.0,0.0,0.0,0.0,0.0,15.0
25.49,0.0,0.0,0.0,0.0,0.0,0.0,0.0,15.0
25.55,0.0,0.0,0.0,0.0,0.0,0.0,0.0,15.0
25.59,0.0,0.0,0.0,0.0,0.0,0.0,0.0,15.0
25.53,0.0,0.0,0.0,0.0,0.0,0.0,0.0,15.0
25.59,0.0,0.0,0.0,0.0,0.0,0.0,0.0,15.0
25.59,0.0,0.0,0.0,0.0,0.0,0.0,0.0,15.0
25.61,0.0,0.0,0.0,0.0,0.0,0.0,0.0,15.0
25.55,0.0,0.0,0.0,0.0,0.0,0.0,0.0,15.0
25.63,0.0,0.0,0.0,0.0,0.0,0.0,0.0,15.0
25.61,0.0,0.0,0.0,0.0,0.0,0.0,0.0,15.0
25.75,0.0,0.0,0.0,0.0,0.0,0.0,0.0,15.0
25.99,0.0,0.0,0.0,0.0,0.0,0.0,0.0,15.0
25.99,0.0,0.0,0.0,0.0,0.0,0.0,0.0,15.0
26.05,0.0,0.0,0.0,0.0,0.0,0.0,0.0,15.0
25.99,0.0,0.0,0.0,0.0,0.0,0.0,0.0,15.0
25.93,0.0,0.0,0.0,0.0,0.0,0.0,0.0,15.0
25.97,0.0,0.0,0.0,0.0,0.0,0.0,0.0,15.0
25.97,0.0,0.0,0.0,0.0,0.0,0.0,0.0,15.0
25.93,0.0,0.0,0.0,0.0,0.0,0.0,0.0,15.0
25.99,0.0,0.0,0.0,0.0,0.0,0.0,0.0,15.0
25.91,0.0,0.0,0.0,0.0,0.0,0.0,0.0,15.0
26.05,0.0,0.0,0.0,0.0,0.0,0.0,0.0,15.0
25.99,0.0,0.0,0.0,0.0,0.0,0.0,0.0,15.0
25.97,0.0,0.0,0.0,0.0,0.0,0.0,0.0,15.0
26.23,0.0,0.0,0.0,0.0,0.0,0.0,0.0,15.0
26.67,0.0,0.0,0.0,0.0,0.0,0.0,0.0,15.0
27.79,0.0,0.0,0.0,0.0,0.0,0.0,0.0,15.0
30.15,0.0,0.0,0.0,0.0,0.0,0.0,0.0,15.0
39.05,0.0,0.0,0.0,0.0,0.0,0.0,0.0,15.0
39.41,0.0,0.0,0.0,0.0,0.0,0.0,0.0,15.0
39.27,0.0,0.0,0.0,0.0,0.0,0.0,0.0,15.0
39.49,0.0,0.0,0.0,0.0,0.0,0.0,0.0,15.0
39.71,0.0,0.0,0.0,0.0,0.0,0.0,0.0,15.0
39.75,0.0,0.0,0.0,0.0,0.0,0.0,0.0,15.0
39.77,0.0,0.0,0.0,0.0,0.0,0.0,0.0,19.0
39.41,0.0,0.0,0.0,0.0,0.0,0.0,0.0,28.0
39.65,0.0,0.0,0.0,0.0,0.0,0.0,0.0,36.0
39.89,0.0,0.0,0.0,0.0,0.0,0.0,0.0,45.0
40.21,0.0,0.0,0.0,0.0,0.0,0.0,0.0,55.0
40.37,0.0,0.0,0.0,0.0,0.0,0.0,1.0,66.0
40.25,0.0,258.0,0.0,0.0,502.0,0.0,1274.0,76.0
40.13,0.0,592.0,0.0,0.0,726.0,0.0,1774.0,86.0
39.91,0.0,640.0,0.0,0.0,379.0,0.0,1909.0,96.0
39.73,0.0,683.0,0.0,0.0,415.0,0.0,1949.0,100.0
39.65,0.0,674.0,0.0,0.0,464.0,0.0,1979.0,100.0
39.67,0.0,649.0,0.0,0.0,447.0,0.0,2000.0,100.0
39.73,0.0,606.0,0.0,0.0,419.0,0.0,2050.0,100.0
39.95,0.0,599.0,0.0,0.0,418.0,0.0,2051.0,100.0
40.13,0.0,608.0,0.0,0.0,443.0,0.0,2067.0,100.0
40.13,0.0,606.0,0.0,0.0,433.0,0.0,2077.0,100.0
40.11,0.0,496.0,0.0,0.0,361.0,0.0,1976.0,100.0
40.17,0.0,690.0,0.0,0.0,459.0,0.0,2378.0,100.0
40.09,0.0,688.0,0.0,0.0,501.0,0.0,2303.0,100.0
40.17,0.0,719.0,0.0,0.0,541.0,0.0,2214.0,100.0
40.19,0.0,729.0,0.0,0.0,609.0,0.0,2179.0,100.0
40.27,0.0,738.0,0.0,0.0,674.0,0.0,2134.0,100.0
40.27,0.0,746.0,0.0,0.0,770.0,0.0,2019.0,100.0
40.25,0.0,751.0,0.0,0.0,855.0,0.0,2028.0,100.0
40.13,0.0,749.0,0.0,0.0,1009.0,0.0,2050.0,100.0
40.03,0.0,752.0,0.0,0.0,1023.0,0.0,2060.0,100.0
39.99,0.0,754.0,0.0,0.0,1002.0,0.0,2075.0,100.0
39.99,0.0,690.0,0.0,0.0,1040.0,0.0,2066.0,100.0
40.03,0.0,757.0,0.0,0.0,1023.0,0.0,2066.0,100.0
40.09,0.0,767.0,0.0,0.0,880.0,0.0,2066.0,100.0
40.09,0.0,756.0,0.0,0.0,807.0,0.0,2105.0,100.0
40.01,0.0,761.0,0.0,0.0,656.0,0.0,2205.0,100.0
40.01,0.0,736.0,0.0,0.0,592.0,0.0,2247.0,100.0
40.09,0.0,722.0,0.0,0.0,551.0,0.0,2264.0,100.0
40.01,0.0,688.0,0.0,0.0,528.0,0.0,2308.0,100.0
40.07,0.0,645.0,0.0,0.0,505.0,0.0,2367.0,100.0
40.07,0.0,587.0,0.0,0.0,498.0,0.0,2410.0,100.0
40.11,0.0,568.0,0.0,0.0,545.0,0.0,2399.0,100.0
40.11,0.0,555.0,0.0,0.0,490.0,0.0,2386.0,100.0
40.11,0.0,563.0,0.0,0.0,493.0,0.0,2404.0,100.0
40.11,0.0,564.0,0.0,0.0,507.0,0.0,2388.0,100.0
40.13,0.0,570.0,0.0,0.0,496.0,0.0,2396.0,100.0
40.13,0.0,572.0,0.0,0.0,491.0,0.0,2395.0,100.0
40.07,0.0,563.0,0.0,0.0,499.0,0.0,2395.0,100.0
40.07,0.0,571.0,0.0,0.0,510.0,0.0,2404.0,100.0
39.95,0.0,569.0,0.0,0.0,497.0,0.0,2415.0,100.0
39.95,0.0,574.0,0.0,0.0,497.0,0.0,2412.0,100.0
39.89,0.0,563.0,0.0,0.0,501.0,0.0,2416.0,100.0
39.89,0.0,575.0,0.0,0.0,496.0,0.0,2405.0,100.0
39.89,0.0,575.0,0.0,0.0,500.0,0.0,2415.0,100.0
39.91,0.0,576.0,0.0,0.0,507.0,0.0,2421.0,100.0
39.91,0.0,576.0,0.0,0.0,496.0,0.0,2411.0,100.0
39.89,0.0,576.0,0.0,0.0,497.0,0.0,2424.0,100.0
39.83,0.0,562.0,0.0,0.0,506.0,0.0,2411.0,100.0
39.83,0.0,576.0,0.0,0.0,499.0,0.0,2416.0,100.0
39.83,0.0,560.0,0.0,0.0,503.0,0.0,2406.0,100.0
39.85,0.0,582.0,0.0,0.0,499.0,0.0,2409.0,100.0
39.81,0.0,582.0,0.0,0.0,501.0,0.0,2416.0,100.0
39.75,0.0,576.0,0.0,0.0,497.0,0.0,2408.0,100.0
39.75,0.0,582.0,0.0,0.0,502.0,0.0,2418.0,100.0
39.75,0.0,575.0,0.0,0.0,505.0,0.0,2418.0,100.0
39.81,0.0,575.0,0.0,0.0,509.0,0.0,2418.0,100.0
39.83,0.0,592.0,0.0,0.0,503.0,0.0,2418.0,100.0
39.81,0.0,576.0,0.0,0.0,505.0,0.0,2420.0,100.0
39.85,0.0,497.0,0.0,0.0,502.0,0.0,2427.0,100.0
39.83,0.0,588.0,0.0,0.0,499.0,0.0,2415.0,100.0
39.73,0.0,586.0,0.0,0.0,630.0,0.0,2431.0,100.0
39.71,0.0,577.0,0.0,0.0,499.0,0.0,2428.0,100.0
39.83,0.0,624.0,0.0,0.0,496.0,0.0,2429.0,100.0
39.75,0.0,567.0,0.0,0.0,503.0,0.0,2423.0,100.0
39.85,0.0,581.0,0.0,0.0,497.0,0.0,2431.0,100.0
39.89,0.0,578.0,0.0,0.0,496.0,0.0,2430.0,100.0
39.91,0.0,576.0,0.0,0.0,507.0,0.0,2428.0,100.0
39.91,0.0,587.0,0.0,0.0,496.0,0.0,2437.0,100.0
39.95,0.0,572.0,0.0,0.0,497.0,0.0,2438.0,100.0
40.01,0.0,578.0,0.0,0.0,503.0,0.0,2441.0,100.0
39.93,0.0,1253.0,0.0,0.0,0.0,0.0,2437.0,100.0
39.93,0.0,580.0,0.0,0.0,499.0,0.0,2436.0,100.0
39.91,0.0,583.0,0.0,0.0,494.0,0.0,2432.0,100.0
39.91,0.0,576.0,0.0,0.0,487.0,0.0,2428.0,100.0
39.89,0.0,587.0,0.0,0.0,498.0,0.0,2431.0,100.0
39.81,0.0,582.0,0.0,0.0,496.0,0.0,2441.0,100.0
39.89,0.0,577.0,0.0,0.0,497.0,0.0,2439.0,100.0
39.93,0.0,579.0,0.0,0.0,495.0,0.0,2441.0,100.0
39.89,0.0,576.0,0.0,0.0,496.0,0.0,2436.0,100.0
39.85,0.0,579.0,0.0,0.0,494.0,0.0,2440.0,100.0
39.81,0.0,573.0,0.0,0.0,509.0,0.0,2440.0,100.0
39.77,0.0,577.0,0.0,0.0,500.0,0.0,2437.0,100.0
39.67,0.0,581.0,0.0,0.0,496.0,0.0,2449.0,100.0
39.71,0.0,663.0,0.0,0.0,494.0,0.0,2450.0,100.0
39.75,0.0,577.0,0.0,0.0,494.0,0.0,2447.0,100.0
39.71,0.0,0.0,0.0,0.0,0.0,0.0,1061.0,15.0
39.49,0.0,0.0,0.0,0.0,0.0,0.0,0.0,15.0
26.93,0.0,0.0,0.0,0.0,0.0,0.0,0.0,15.0
27.03,0.0,0.0,0.0,0.0,0.0,0.0,0.0,15.0
27.37,0.0,0.0,0.0,0.0,0.0,0.0,0.0,15.0
28.23,0.0,0.0,0.0,0.0,0.0,0.0,0.0,15.0
27.79,0.0,0.0,0.0,0.0,0.0,0.0,0.0,15.0
27.85,0.0,0.0,0.0,0.0,0.0,0.0,0.0,15.0
28.85,0.0,0.0,0.0,0.0,0.0,0.0,0.0,15.0
28.31,0.0,0.0,0.0,0.0,0.0,0.0,0.0,15.0
26.29,0.0,0.0,0.0,0.0,0.0,0.0,0.0,15.0
26.17,0.0,0.0,0.0,0.0,0.0,0.0,0.0,15.0
26.11,0.0,0.0,0.0,0.0,0.0,0.0,0.0,15.0
26.09,0.0,0.0,0.0,0.0,0.0,0.0,0.0,15.0
26.05,0.0,0.0,0.0,0.0,0.0,0.0,0.0,15.0
26.03,0.0,0.0,0.0,0.0,0.0,0.0,0.0,15.0
26.03,0.0,0.0,0.0,0.0,0.0,0.0,0.0,15.0
26.05,0.0,0.0,0.0,0.0,0.0,0.0,0.0,15.0
25.99,0.0,0.0,0.0,0.0,0.0,0.0,0.0,15.0
25.97,0.0,0.0,0.0,0.0,0.0,0.0,0.0,15.0
26.05,0.0,0.0,0.0,0.0,0.0,0.0,0.0,15.0
26.11,0.0,0.0,0.0,0.0,0.0,0.0,0.0,15.0
26.27,0.0,0.0,0.0,0.0,0.0,0.0,0.0,15.0
26.27,0.0,0.0,0.0,0.0,0.0,0.0,0.0,15.0
26.27,0.0,0.0,0.0,0.0,0.0,0.0,0.0,15.0
26.23,0.0,0.0,0.0,0.0,0.0,0.0,0.0,15.0
26.27,0.0,0.0,0.0,0.0,0.0,0.0,0.0,15.0
26.11,0.0,0.0,0.0,0.0,0.0,0.0,0.0,15.0
26.21,0.0,0.0,0.0,0.0,0.0,0.0,0.0,15.0
26.17,0.0,0.0,0.0,0.0,0.0,0.0,0.0,15.0
26.23,0.0,0.0,0.0,0.0,0.0,0.0,0.0,15.0
26.21,0.0,0.0,0.0,0.0,0.0,0.0,0.0,15.0
26.23,0.0,0.0,0.0,0.0,0.0,0.0,0.0,15.0
26.27,0.0,0.0,0.0,0.0,0.0,0.0,0.0,15.0
26.17,0.0,0.0,0.0,0.0,0.0,0.0,0.0,15.0
26.27,0.0,0.0,0.0,0.0,0.0,0.0,0.0,15.0
26.23,0.0,0.0,0.0,0.0,0.0,0.0,0.0,15.0
26.23,0.0,0.0,0.0,0.0,0.0,0.0,0.0,15.0
26.31,96.0,0.0,0.0,0.0,0.0,0.0,0.0,15.0
26.23,0.0,0.0,0.0,0.0,0.0,0.0,0.0,15.0
26.27,0.0,0.0,0.0,0.0,0.0,0.0,0.0,15.0
26.23,0.0,0.0,0.0,0.0,0.0,0.0,0.0,15.0
26.17,0.0,0.0,0.0,0.0,0.0,0.0,0.0,15.0
26.21,0.0,0.0,0.0,0.0,0.0,0.0,0.0,15.0
26.23,0.0,0.0,0.0,0.0,0.0,0.0,0.0,15.0
25.85,0.0,0.0,0.0,0.0,0.0,0.0,0.0,15.0
25.81,0.0,0.0,0.0,0.0,0.0,0.0,0.0,15.0
25.81,0.0,0.0,0.0,0.0,0.0,0.0,0.0,15.0
26.09,0.0,0.0,0.0,0.0,0.0,0.0,0.0,15.0
26.09,0.0,0.0,0.0,0.0,0.0,0.0,0.0,15.0
25.99,0.0,0.0,0.0,0.0,0.0,0.0,0.0,15.0
26.15,0.0,0.0,0.0,0.0,0.0,0.0,0.0,15.0
26.29,0.0,0.0,0.0,0.0,0.0,0.0,0.0,15.0
25.81,0.0,0.0,0.0,0.0,0.0,0.0,0.0,15.0
25.91,0.0,0.0,0.0,0.0,0.0,0.0,0.0,21.0
26.09,0.0,0.0,0.0,0.0,0.0,0.0,0.0,31.0
26.15,0.0,0.0,0.0,0.0,0.0,0.0,0.0,41.0
26.21,0.0,0.0,0.0,0.0,0.0,0.0,0.0,50.0
26.29,0.0,0.0,0.0,0.0,0.0,0.0,0.0,60.0
26.49,0.0,0.0,0.0,0.0,0.0,0.0,0.0,70.0
26.49,0.0,0.0,0.0,0.0,0.0,0.0,0.0,80.0
26.43,0.0,0.0,0.0,0.0,0.0,0.0,2450.0,90.0
26.31,0.0,0.0,0.0,0.0,0.0,0.0,2537.0,99.0
26.29,0.0,0.0,0.0,0.0,0.0,0.0,2559.0,100.0
26.41,0.0,0.0,0.0,0.0,0.0,0.0,2598.0,100.0
26.37,0.0,0.0,0.0,0.0,0.0,0.0,2631.0,100.0
26.37,0.0,0.0,0.0,0.0,0.0,0.0,2366.0,100.0
26.27,0.0,0.0,0.0,0.0,0.0,0.0,2441.0,100.0
26.27,0.0,0.0,0.0,0.0,0.0,0.0,2450.0,100.0
26.29,0.0,0.0,0.0,0.0,0.0,0.0,2458.0,100.0
26.29,0.0,0.0,0.0,0.0,0.0,0.0,2471.0,100.0
26.27,0.0,0.0,0.0,0.0,0.0,0.0,2439.0,100.0
26.23,0.0,0.0,0.0,0.0,0.0,0.0,2443.0,100.0
26.23,0.0,0.0,0.0,0.0,0.0,0.0,2441.0,100.0
26.23,0.0,0.0,0.0,0.0,0.0,0.0,2423.0,100.0
26.29,0.0,0.0,0.0,0.0,0.0,0.0,2425.0,100.0
26.29,0.0,0.0,0.0,0.0,0.0,0.0,2425.0,100.0
26.27,0.0,0.0,0.0,0.0,0.0,0.0,2426.0,100.0
26.27,0.0,0.0,0.0,0.0,0.0,0.0,2426.0,100.0
26.27,0.0,0.0,0.0,0.0,0.0,0.0,2421.0,100.0
26.27,0.0,0.0,0.0,0.0,0.0,0.0,2433.0,100.0
26.29,0.0,0.0,0.0,0.0,0.0,0.0,2430.0,100.0
26.29,0.0,0.0,0.0,0.0,0.0,0.0,2438.0,100.0
26.29,0.0,0.0,0.0,0.0,0.0,0.0,2443.0,100.0
26.29,0.0,0.0,0.0,0.0,0.0,0.0,2449.0,100.0
26.27,0.0,0.0,0.0,0.0,0.0,0.0,2435.0,100.0
26.29,0.0,0.0,0.0,0.0,0.0,0.0,2443.0,100.0
26.27,0.0,0.0,0.0,0.0,0.0,0.0,2448.0,100.0
26.21,0.0,0.0,0.0,0.0,0.0,0.0,2454.0,100.0
26.23,0.0,0.0,0.0,0.0,0.0,0.0,2461.0,100.0
26.17,0.0,0.0,0.0,0.0,0.0,0.0,2452.0,100.0
26.21,0.0,0.0,0.0,0.0,0.0,0.0,2453.0,100.0
26.15,0.0,0.0,0.0,0.0,0.0,0.0,2459.0,100.0
26.21,0.0,0.0,0.0,0.0,0.0,0.0,2462.0,100.0
26.27,0.0,0.0,0.0,0.0,0.0,0.0,2463.0,100.0
26.23,0.0,0.0,0.0,0.0,0.0,0.0,2460.0,100.0
26.27,0.0,0.0,0.0,0.0,0.0,0.0,2464.0,100.0
26.23,0.0,0.0,0.0,0.0,0.0,0.0,2471.0,100.0
26.21,0.0,0.0,0.0,0.0,0.0,0.0,2482.0,100.0
26.29,0.0,0.0,0.0,0.0,0.0,0.0,2495.0,100.0
26.29,0.0,0.0,0.0,0.0,0.0,0.0,2501.0,100.0
26.23,0.0,0.0,0.0,0.0,0.0,0.0,2499.0,100.0
26.27,0.0,0.0,0.0,0.0,0.0,0.0,2519.0,100.0
26.17,0.0,0.0,0.0,0.0,0.0,0.0,2513.0,100.0
26.23,0.0,0.0,0.0,0.0,0.0,0.0,2517.0,100.0
26.15,0.0,0.0,0.0,0.0,0.0,0.0,2519.0,100.0
26.21,0.0,0.0,0.0,0.0,0.0,0.0,2524.0,100.0
26.15,0.0,0.0,0.0,0.0,0.0,0.0,2520.0,100.0
26.15,0.0,0.0,0.0,0.0,0.0,0.0,2519.0,100.0
26.15,0.0,0.0,0.0,0.0,0.0,0.0,2517.0,100.0
26.21,0.0,0.0,0.0,0.0,0.0,0.0,2512.0,100.0
26.17,0.0,0.0,0.0,0.0,0.0,0.0,2515.0,100.0
26.15,0.0,0.0,0.0,0.0,0.0,0.0,2514.0,100.0
26.17,0.0,0.0,0.0,0.0,0.0,0.0,2524.0,100.0
26.11,0.0,0.0,0.0,0.0,0.0,0.0,2522.0,100.0
26.17,0.0,0.0,0.0,0.0,0.0,0.0,2512.0,100.0
26.17,0.0,0.0,0.0,0.0,0.0,0.0,2505.0,100.0
26.15,0.0,0.0,0.0,0.0,0.0,0.0,2518.0,100.0
26.15,0.0,0.0,0.0,0.0,0.0,0.0,2526.0,100.0
26.15,0.0,0.0,0.0,0.0,0.0,0.0,2526.0,100.0
26.11,0.0,0.0,0.0,0.0,0.0,0.0,2522.0,100.0
26.15,0.0,0.0,0.0,0.0,0.0,0.0,2523.0,100.0
26.15,0.0,0.0,0.0,0.0,0.0,0.0,2519.0,100.0
26.15,0.0,0.0,0.0,0.0,0.0,0.0,2530.0,100.0
26.15,0.0,0.0,0.0,0.0,0.0,0.0,2523.0,100.0
26.11,0.0,0.0,0.0,0.0,0.0,0.0,2528.0,100.0
26.05,0.0,0.0,0.0,0.0,0.0,0.0,2526.0,100.0
26.09,0.0,0.0,0.0,0.0,0.0,0.0,2536.0,100.0
26.15,0.0,0.0,0.0,0.0,0.0,0.0,2533.0,100.0
26.17,0.0,0.0,0.0,0.0,0.0,0.0,2533.0,100.0
26.17,0.0,0.0,0.0,0.0,0.0,0.0,2531.0,100.0
26.21,0.0,0.0,0.0,0.0,0.0,0.0,2539.0,100.0
26.17,0.0,0.0,0.0,0.0,0.0,0.0,2529.0,100.0
26.17,0.0,0.0,0.0,0.0,0.0,0.0,2527.0,100.0
26.23,0.0,0.0,0.0,0.0,0.0,0.0,2524.0,100.0
26.11,0.0,0.0,0.0,0.0,0.0,0.0,2529.0,100.0
26.21,0.0,0.0,0.0,0.0,0.0,0.0,2530.0,100.0
26.15,0.0,0.0,0.0,0.0,0.0,0.0,2528.0,100.0
26.15,0.0,0.0,0.0,0.0,0.0,0.0,2528.0,100.0
26.17,0.0,0.0,0.0,0.0,0.0,0.0,2529.0,100.0
26.11,0.0,0.0,0.0,0.0,0.0,0.0,2531.0,100.0
26.09,0.0,0.0,0.0,0.0,0.0,0.0,2523.0,100.0
26.05,0.0,0.0,0.0,0.0,0.0,0.0,2531.0,100.0
26.17,0.0,0.0,0.0,144.0,0.0,0.0,2532.0,100.0
26.11,0.0,0.0,0.0,0.0,0.0,0.0,2539.0,100.0
26.17,0.0,0.0,0.0,0.0,0.0,0.0,464.0,15.0
25.67,0.0,0.0,0.0,0.0,0.0,0.0,0.0,15.0
25.85,0.0,0.0,0.0,0.0,0.0,0.0,0.0,15.0
25.79,0.0,0.0,0.0,0.0,0.0,0.0,0.0,15.0
25.85,0.0,0.0,0.0,0.0,0.0,0.0,0.0,15.0
25.79,0.0,0.0,0.0,0.0,0.0,0.0,0.0,15.0
25.79,0.0,0.0,0.0,0.0,0.0,0.0,0.0,15.0
25.79,0.0,0.0,0.0,0.0,0.0,0.0,0.0,15.0
25.85,0.0,0.0,0.0,0.0,0.0,0.0,0.0,15.0
25.91,0.0,0.0,0.0,0.0,0.0,0.0,0.0,15.0
25.91,0.0,0.0,0.0,0.0,0.0,0.0,0.0,15.0
25.99,0.0,0.0,0.0,0.0,0.0,0.0,0.0,15.0
25.93,0.0,0.0,0.0,0.0,0.0,0.0,0.0,15.0
25.87,0.0,0.0,0.0,0.0,0.0,0.0,0.0,15.0
25.93,0.0,0.0,0.0,0.0,0.0,0.0,0.0,15.0
25.85,0.0,0.0,0.0,0.0,0.0,0.0,0.0,15.0
25.91,0.0,0.0,0.0,0.0,0.0,0.0,0.0,15.0
25.93,0.0,0.0,0.0,0.0,0.0,0.0,0.0,15.0
25.91,0.0,0.0,0.0,0.0,0.0,0.0,0.0,15.0
25.85,0.0,0.0,0.0,0.0,0.0,0.0,0.0,15.0
25.81,0.0,0.0,0.0,0.0,0.0,0.0,0.0,15.0
25.91,0.0,0.0,0.0,0.0,0.0,0.0,0.0,15.0
25.91,0.0,0.0,0.0,0.0,0.0,0.0,0.0,15.0
25.87,0.0,0.0,0.0,0.0,0.0,0.0,0.0,15.0
25.75,0.0,0.0,0.0,0.0,0.0,0.0,0.0,15.0
25.73,0.0,0.0,0.0,0.0,0.0,0.0,0.0,15.0
25.55,0.0,0.0,0.0,0.0,0.0,0.0,0.0,15.0
25.55,0.0,0.0,0.0,0.0,0.0,0.0,0.0,15.0
25.53,0.0,0.0,0.0,0.0,0.0,0.0,0.0,15.0
25.55,0.0,0.0,0.0,0.0,0.0,0.0,0.0,15.0
25.63,0.0,0.0,0.0,0.0,0.0,0.0,0.0,15.0
25.75,0.0,0.0,0.0,0.0,0.0,0.0,0.0,15.0
25.91,0.0,0.0,0.0,0.0,0.0,0.0,0.0,15.0
25.91,0.0,0.0,0.0,0.0,0.0,0.0,0.0,15.0
25.81,0.0,0.0,0.0,0.0,0.0,0.0,0.0,15.0
25.85,0.0,0.0,0.0,0.0,0.0,0.0,0.0,15.0
25.81,0.0,0.0,0.0,0.0,0.0,0.0,0.0,15.0
25.63,0.0,0.0,0.0,0.0,0.0,0.0,0.0,15.0
25.63,0.0,0.0,0.0,0.0,0.0,0.0,0.0,15.0
25.63,0.0,0.0,0.0,0.0,0.0,0.0,0.0,15.0
25.59,0.0,0.0,0.0,0.0,0.0,0.0,0.0,15.0
