tempMLX,FSR_A1,FSR_A2,FSR_A3,FSR_B1,FSR_B2,FSR_B3,FSR_C,porcAper
20.0,0.0,0.0,0.0,0.0,0.0,0.0,0.0,15.0
0.0,0.0,0.0,0.0,0.0,0.0,0.0,0.0,15.0
0.0,0.0,0.0,0.0,0.0,0.0,0.0,0.0,15.0
25.59,0.0,0.0,0.0,0.0,0.0,0.0,0.0,15.0
25.59,0.0,0.0,0.0,0.0,0.0,0.0,0.0,15.0
25.53,0.0,0.0,0.0,0.0,0.0,0.0,0.0,15.0
25.49,0.0,0.0,0.0,0.0,0.0,0.0,0.0,15.0
25.53,0.0,0.0,0.0,0.0,0.0,0.0,0.0,15.0
25.49,0.0,0.0,0.0,0.0,0.0,0.0,0.0,15.0
25.49,0.0,0.0,0.0,0.0,0.0,0.0,0.0,15.0
25.47,0.0,0.0,0.0,0.0,0.0,0.0,0.0,15.0
25.43,0.0,0.0,0.0,0.0,0.0,0.0,0.0,15.0
25.49,0.0,0.0,0.0,0.0,0.0,0.0,0.0,15.0
25.53,0.0,0.0,0.0,0.0,0.0,0.0,0.0,15.0
25.53,0.0,0.0,0.0,0.0,0.0,0.0,0.0,15.0
25.59,0.0,0.0,0.0,0.0,0.0,0.0,0.0,15.0
25.59,0.0,0.0,0.0,0.0,0.0,0.0,0.0,15.0
25.63,0.0,0.0,0.0,0.0,0.0,0.0,0.0,15.0
25.69,0.0,0.0,0.0,0.0,0.0,0.0,0.0,15.0
25.73,0.0,0.0,0.0,0.0,0.0,0.0,0.0,15.0
25.61,0.0,0.0,0.0,0.0,0.0,0.0,0.0,15.0
25.61,0.0,0.0,0.0,0.0,0.0,0.0,0.0,15.0
25.59,0.0,0.0,0.0,0.0,0.0,0.0,0.0,15.0
25.59,0.0,0.0,0.0,0.0,0.0,0.0,0.0,15.0
25.59,0.0,0.0,0.0,0.0,0.0,0.0,0.0,15.0
25.59,0.0,0.0,0.0,0.0,0.0,0.0,0.0,15.0
25.59,0.0,0.0,0.0,0.0,0.0,0.0,0.0,15.0
25.61,0.0,0.0,0.0,0.0,0.0,0.0,0.0,15.0
25.73,0.0,0.0,0.0,0.0,0.0,0.0,0.0,15.0
25.73,0.0,0.0,0.0,0.0,0.0,0.0,0.0,15.0
25.79,0.0,0.0,0.0,0.0,0.0,0.0,0.0,15.0
25.75,0.0,0.0,0.0,0.0,0.0,0.0,0.0,15.0
25.73,0.0,0.0,0.0,0.0,0.0,0.0,0.0,15.0
25.81,0.0,0.0,0.0,0.0,0.0,0.0,0.0,15.0
25.79,0.0,0.0,0.0,0.0,0.0,0.0,0.0,15.0
25.81,0.0,0.0,0.0,0.0,0.0,0.0,0.0,15.0
25.75,0.0,0.0,0.0,0.0,0.0,0.0,0.0,15.0
25.75,0.0,0.0,0.0,0.0,0.0,0.0,0.0,15.0
25.75,0.0,0.0,0.0,0.0,0.0,0.0,0.0,15.0
25.81,0.0,0.0,0.0,0.0,0.0,0.0,0.0,15.0
25.81,0.0,0.0,0.0,0.0,0.0,0.0,0.0,15.0
25.69,0.0,0.0,0.0,0.0,0.0,0.0,0.0,15.0
25.69,0.0,0.0,0.0,0.0,0.0,0.0,0.0,15.0
25.73,0.0,0.0,0.0,0.0,0.0,0.0,0.0,15.0
25.75,0.0,0.0,0.0,0.0,0.0,0.0,0.0,15.0
25.69,0.0,0.0,0.0,0.0,0.0,0.0,0.0,15.0
25.67,0.0,0.0,0.0,0.0,0.0,0.0,0.0,15.0
25.67,0.0,0.0,0.0,0.0,0.0,0.0,0.0,15.0
25.73,0.0,0.0,0.0,0.0,0.0,0.0,0.0,15.0
25.73,0.0,0.0,0.0,0.0,0.0,0.0,0.0,15.0
25.75,0.0,0.0,0.0,0.0,0.0,0.0,0.0,15.0
25.69,0.0,0.0,0.0,0.0,0.0,0.0,0.0,15.0
25.75,0.0,0.0,0.0,0.0,0.0,0.0,0.0,15.0
25.73,0.0,0.0,0.0,0.0,0.0,0.0,0.0,15.0
25.75,0.0,0.0,0.0,0.0,0.0,0.0,0.0,15.0
25.73,0.0,0.0,0.0,0.0,0.0,0.0,0.0,15.0
25.79,0.0,0.0,0.0,0.0,0.0,0.0,0.0,15.0
25.79,0.0,0.0,0.0,0.0,0.0,0.0,0.0,15.0
25.79,0.0,0.0,0.0,0.0,0.0,0.0,0.0,15.0
25.73,0.0,0.0,0.0,0.0,0.0,0.0,0.0,15.0
25.79,0.0,0.0,0.0,0.0,0.0,0.0,0.0,15.0
25.75,0.0,0.0,0.0,0.0,0.0,0.0,0.0,15.0
25.73,0.0,0.0,0.0,0.0,0.0,0.0,0.0,15.0
25.73,0.0,0.0,0.0,0.0,0.0,0.0,0.0,15.0
25.75,0.0,0.0,0.0,0.0,0.0,0.0,0.0,15.0
25.73,0.0,0.0,0.0,0.0,0.0,0.0,0.0,15.0
25.69,0.0,0.0,0.0,0.0,0.0,0.0,0.0,15.0
25.63,0.0,0.0,0.0,0.0,0.0,0.0,0.0,15.0
25.61,0.0,0.0,0.0,0.0,0.0,0.0,0.0,15.0
25.67,0.0,0.0,0.0,0.0,0.0,0.0,0.0,15.0
25.67,0.0,0.0,0.0,0.0,0.0,0.0,0.0,15.0
25.75,0.0,0.0,0.0,0.0,0.0,0.0,0.0,15.0
25.73,0.0,0.0,0.0,0.0,0.0,0.0,0.0,15.0
25.81,0.0,0.0,0.0,0.0,0.0,0.0,0.0,15.0
25.73,0.0,0.0,0.0,0.0,0.0,0.0,0.0,15.0
25.73,0.0,0.0,0.0,0.0,0.0,0.0,0.0,15.0
25.81,0.0,0.0,0.0,0.0,0.0,0.0,0.0,15.0
25.73,0.0,0.0,0.0,0.0,0.0,0.0,0.0,15.0
25.79,0.0,0.0,0.0,0.0,0.0,0.0,0.0,15.0
25.81,0.0,0.0,0.0,0.0,0.0,0.0,0.0,15.0
25.75,0.0,0.0,0.0,0.0,0.0,0.0,0.0,15.0
25.79,0.0,0.0,0.0,0.0,0.0,0.0,0.0,15.0
25.81,0.0,0.0,0.0,0.0,0.0,0.0,0.0,15.0
25.73,0.0,0.0,0.0,0.0,0.0,0.0,0.0,15.0
25.75,0.0,0.0,0.0,0.0,0.0,0.0,0.0,15.0
25.79,0.0,0.0,0.0,0.0,0.0,0.0,0.0,15.0
25.79,0.0,0.0,0.0,0.0,0.0,0.0,0.0,15.0
25.79,0.0,0.0,0.0,0.0,0.0,0.0,0.0,15.0
25.75,0.0,0.0,0.0,0.0,0.0,0.0,0.0,15.0
25.79,0.0,0.0,0.0,0.0,0.0,0.0,0.0,15.0
25.79,0.0,0.0,0.0,0.0,0.0,0.0,0.0,15.0
25.81,0.0,0.0,0.0,0.0,0.0,0.0,0.0,15.0
25.81,0.0,0.0,0.0,0.0,0.0,0.0,0.0,15.0
25.75,0.0,0.0,0.0,0.0,0.0,0.0,0.0,15.0
25.73,0.0,0.0,0.0,0.0,0.0,0.0,0.0,15.0
25.85,0.0,0.0,0.0,0.0,0.0,0.0,0.0,15.0
25.81,0.0,0.0,0.0,0.0,0.0,0.0,0.0,15.0
25.81,0.0,0.0,0.0,0.0,0.0,0.0,0.0,15.0
25.79,0.0,0.0,0.0,0.0,0.0,0.0,0.0,15.0
25.79,0.0,0.0,0.0,0.0,0.0,0.0,0.0,15.0
25.81,0.0,0.0,0.0,0.0,0.0,0.0,0.0,15.0
25.81,0.0,0.0,0.0,0.0,0.0,0.0,0.0,15.0
25.79,0.0,0.0,0.0,0.0,0.0,0.0,0.0,15.0
25.67,0.0,0.0,0.0,0.0,0.0,0.0,0.0,15.0
25.69,0.0,0.0,0.0,0.0,0.0,0.0,0.0,15.0
25.75,0.0,0.0,0.0,0.0,0.0,0.0,0.0,15.0
25.85,0.0,0.0,0.0,0.0,0.0,0.0,0.0,15.0
25.87,0.0,0.0,0.0,0.0,0.0,0.0,0.0,15.0
25.91,0.0,0.0,0.0,0.0,0.0,0.0,0.0,15.0
25.99,0.0,0.0,0.0,0.0,0.0,0.0,0.0,15.0
25.99,0.0,0.0,0.0,0.0,0.0,0.0,0.0,15.0
25.97,0.0,0.0,0.0,0.0,0.0,0.0,0.0,15.0
25.99,0.0,0.0,0.0,0.0,0.0,0.0,0.0,15.0
25.91,0.0,0.0,0.0,0.0,0.0,0.0,0.0,15.0
25.87,0.0,0.0,0.0,0.0,0.0,0.0,0.0,15.0
25.97,0.0,0.0,0.0,0.0,0.0,0.0,0.0,15.0
25.91,0.0,0.0,0.0,0.0,0.0,0.0,0.0,15.0
25.81,0.0,0.0,0.0,0.0,0.0,0.0,0.0,15.0
25.81,0.0,0.0,0.0,0.0,0.0,0.0,0.0,15.0
25.81,0.0,0.0,0.0,0.0,0.0,0.0,0.0,15.0
25.79,0.0,0.0,0.0,0.0,0.0,0.0,0.0,15.0
25.75,0.0,0.0,0.0,0.0,0.0,0.0,0.0,15.0
25.79,0.0,0.0,0.0,0.0,0.0,0.0,0.0,15.0
25.69,0.0,0.0,0.0,0.0,0.0,0.0,0.0,15.0
25.79,0.0,0.0,0.0,0.0,0.0,0.0,0.0,15.0
25.73,0.0,0.0,0.0,0.0,0.0,0.0,0.0,15.0
25.73,0.0,0.0,0.0,0.0,0.0,0.0,0.0,15.0
25.75,0.0,0.0,0.0,0.0,0.0,0.0,0.0,15.0
25.69,0.0,0.0,0.0,0.0,0.0,0.0,0.0,15.0
25.73,0.0,0.0,0.0,0.0,0.0,0.0,0.0,15.0
25.73,0.0,0.0,0.0,0.0,0.0,0.0,0.0,15.0
25.69,0.0,0.0,0.0,0.0,0.0,0.0,0.0,15.0
25.63,0.0,0.0,0.0,0.0,0.0,0.0,0.0,15.0
25.73,0.0,0.0,0.0,0.0,0.0,0.0,0.0,15.0
25.73,0.0,0.0,0.0,0.0,0.0,0.0,0.0,15.0
25.79,0.0,0.0,0.0,0.0,0.0,0.0,0.0,15.0
25.69,0.0,0.0,0.0,0.0,162.0,0.0,0.0,15.0
25.73,0.0,0.0,0.0,0.0,0.0,0.0,0.0,15.0
25.67,0.0,0.0,0.0,0.0,0.0,0.0,0.0,15.0
25.73,0.0,0.0,0.0,0.0,0.0,0.0,0.0,15.0
25.79,0.0,0.0,0.0,0.0,0.0,0.0,0.0,15.0
25.63,0.0,0.0,0.0,0.0,0.0,0.0,0.0,15.0
25.59,0.0,0.0,0.0,0.0,0.0,0.0,0.0,15.0
25.53,0.0,0.0,0.0,0.0,0.0,0.0,0.0,15.0
25.69,0.0,0.0,0.0,0.0,0.0,0.0,0.0,15.0
25.47,0.0,0.0,0.0,0.0,0.0,0.0,0.0,15.0
25.53,0.0,0.0,0.0,0.0,0.0,0.0,0.0,15.0
25.49,0.0,0.0,0.0,0.0,0.0,0.0,0.0,18.0
25.43,0.0,0.0,0.0,0.0,0.0,0.0,0.0,27.0
25.47,0.0,0.0,0.0,0.0,0.0,0.0,0.0,36.0
25.49,0.0,0.0,0.0,0.0,0.0,0.0,0.0,46.0
25.53,0.0,0.0,0.0,0.0,0.0,0.0,0.0,55.0
25.53,0.0,0.0,0.0,0.0,0.0,0.0,0.0,68.0
25.43,0.0,0.0,0.0,0.0,0.0,0.0,0.0,77.0
25.47,0.0,0.0,0.0,0.0,0.0,0.0,0.0,89.0
25.49,0.0,0.0,0.0,0.0,0.0,0.0,0.0,97.0
25.49,0.0,0.0,0.0,0.0,0.0,0.0,0.0,97.0
25.47,0.0,0.0,0.0,0.0,0.0,0.0,0.0,97.0
25.43,0.0,0.0,0.0,0.0,0.0,0.0,0.0,97.0
25.47,0.0,0.0,0.0,0.0,0.0,0.0,0.0,97.0
25.43,0.0,0.0,0.0,0.0,0.0,0.0,0.0,97.0
25.49,0.0,0.0,0.0,0.0,0.0,0.0,0.0,97.0
25.47,0.0,0.0,0.0,0.0,0.0,0.0,0.0,97.0
25.43,0.0,0.0,0.0,0.0,0.0,0.0,0.0,97.0
25.47,0.0,0.0,0.0,0.0,0.0,0.0,0.0,97.0
25.59,0.0,0.0,0.0,0.0,0.0,0.0,0.0,97.0
25.53,0.0,0.0,0.0,0.0,0.0,0.0,0.0,97.0
25.63,0.0,0.0,0.0,0.0,0.0,0.0,0.0,97.0
25.69,0.0,0.0,0.0,0.0,0.0,0.0,0.0,97.0
25.81,0.0,0.0,0.0,0.0,0.0,0.0,0.0,97.0
25.85,0.0,0.0,0.0,0.0,0.0,0.0,0.0,97.0
25.87,0.0,0.0,0.0,0.0,0.0,0.0,0.0,97.0
25.87,0.0,0.0,0.0,0.0,0.0,0.0,0.0,97.0
25.85,0.0,0.0,0.0,0.0,0.0,0.0,0.0,97.0
25.85,0.0,0.0,0.0,0.0,0.0,0.0,0.0,97.0
25.73,0.0,0.0,0.0,0.0,0.0,0.0,0.0,97.0
25.63,0.0,0.0,0.0,0.0,0.0,0.0,0.0,97.0
25.55,0.0,0.0,0.0,0.0,0.0,0.0,0.0,97.0
25.53,0.0,0.0,0.0,0.0,0.0,0.0,0.0,97.0
25.49,0.0,0.0,0.0,0.0,0.0,0.0,0.0,97.0
25.55,0.0,0.0,0.0,0.0,0.0,0.0,0.0,97.0
25.53,0.0,0.0,0.0,0.0,0.0,0.0,0.0,97.0
25.55,0.0,0.0,0.0,0.0,0.0,0.0,0.0,97.0
25.53,0.0,0.0,0.0,0.0,0.0,0.0,0.0,97.0
25.61,0.0,0.0,0.0,0.0,0.0,0.0,0.0,97.0
25.53,0.0,0.0,0.0,0.0,0.0,0.0,0.0,97.0
25.53,0.0,0.0,0.0,0.0,0.0,0.0,0.0,97.0
25.55,0.0,0.0,0.0,0.0,0.0,0.0,0.0,97.0
25.49,0.0,238.0,0.0,0.0,0.0,0.0,0.0,97.0
25.49,0.0,0.0,0.0,0.0,0.0,0.0,0.0,97.0
25.49,0.0,0.0,0.0,0.0,0.0,0.0,0.0,97.0
25.47,0.0,0.0,0.0,0.0,0.0,0.0,0.0,97.0
25.43,0.0,0.0,0.0,0.0,0.0,0.0,0.0,97.0
25.47,0.0,0.0,0.0,0.0,0.0,0.0,0.0,97.0
25.47,0.0,0.0,0.0,0.0,0.0,0.0,0.0,97.0
25.53,0.0,0.0,0.0,0.0,0.0,0.0,0.0,97.0
25.43,0.0,0.0,0.0,0.0,0.0,0.0,0.0,97.0
25.47,0.0,0.0,0.0,0.0,0.0,0.0,0.0,97.0
25.41,0.0,0.0,0.0,0.0,0.0,0.0,0.0,97.0
25.47,0.0,0.0,0.0,0.0,0.0,0.0,0.0,97.0
25.43,0.0,0.0,0.0,0.0,0.0,0.0,0.0,97.0
25.43,0.0,0.0,0.0,0.0,0.0,0.0,0.0,97.0
25.47,0.0,0.0,0.0,0.0,0.0,0.0,0.0,97.0
25.53,0.0,0.0,0.0,0.0,0.0,0.0,0.0,97.0
25.47,0.0,0.0,0.0,0.0,0.0,0.0,0.0,97.0
25.49,0.0,0.0,0.0,0.0,0.0,0.0,0.0,97.0
25.37,0.0,0.0,0.0,0.0,0.0,0.0,0.0,97.0
25.43,277.0,0.0,0.0,0.0,0.0,0.0,0.0,97.0
25.47,0.0,0.0,0.0,0.0,0.0,0.0,0.0,97.0
25.43,0.0,0.0,0.0,0.0,0.0,0.0,0.0,97.0
25.35,0.0,0.0,0.0,0.0,0.0,0.0,0.0,97.0
25.43,0.0,0.0,0.0,0.0,0.0,0.0,0.0,97.0
25.41,0.0,0.0,0.0,0.0,0.0,0.0,0.0,97.0
25.43,0.0,0.0,0.0,0.0,0.0,0.0,0.0,97.0
25.49,0.0,0.0,0.0,0.0,0.0,0.0,0.0,97.0
25.47,0.0,0.0,0.0,0.0,0.0,0.0,0.0,97.0
25.49,0.0,0.0,0.0,0.0,0.0,0.0,0.0,97.0
25.49,0.0,0.0,0.0,0.0,0.0,0.0,0.0,97.0
25.47,0.0,0.0,0.0,0.0,0.0,0.0,0.0,97.0
25.43,0.0,0.0,0.0,0.0,0.0,0.0,0.0,97.0
25.47,0.0,0.0,0.0,0.0,0.0,0.0,0.0,97.0
25.47,0.0,0.0,0.0,0.0,0.0,0.0,0.0,97.0
25.43,0.0,0.0,0.0,0.0,0.0,0.0,0.0,97.0
25.53,0.0,0.0,0.0,0.0,0.0,0.0,0.0,97.0
25.49,0.0,0.0,0.0,0.0,0.0,0.0,0.0,97.0
25.47,0.0,0.0,0.0,0.0,0.0,0.0,0.0,97.0
25.49,0.0,0.0,0.0,0.0,0.0,0.0,0.0,97.0
25.49,0.0,0.0,0.0,0.0,0.0,0.0,0.0,97.0
25.49,0.0,0.0,0.0,0.0,0.0,0.0,0.0,97.0
25.47,0.0,0.0,0.0,0.0,0.0,0.0,0.0,97.0
25.43,0.0,0.0,0.0,0.0,0.0,0.0,0.0,97.0
25.41,0.0,0.0,0.0,0.0,0.0,0.0,0.0,97.0
25.41,0.0,0.0,0.0,0.0,0.0,0.0,0.0,97.0
25.41,0.0,0.0,0.0,0.0,0.0,0.0,0.0,97.0
25.47,0.0,0.0,0.0,0.0,0.0,0.0,0.0,97.0
25.49,0.0,0.0,0.0,0.0,0.0,0.0,0.0,97.0
25.47,0.0,0.0,0.0,0.0,0.0,0.0,0.0,97.0
25.49,0.0,0.0,0.0,0.0,0.0,0.0,0.0,97.0
25.37,0.0,0.0,0.0,0.0,246.0,0.0,0.0,15.0
25.53,0.0,0.0,0.0,0.0,0.0,0.0,0.0,15.0
25.61,0.0,0.0,0.0,0.0,0.0,0.0,0.0,15.0
25.59,0.0,0.0,0.0,0.0,0.0,0.0,0.0,15.0
25.59,0.0,0.0,0.0,0.0,0.0,0.0,0.0,15.0
25.53,0.0,0.0,0.0,0.0,0.0,0.0,0.0,15.0
25.47,0.0,0.0,0.0,0.0,0.0,0.0,0.0,15.0
25.53,0.0,0.0,0.0,0.0,0.0,0.0,0.0,15.0
25.59,0.0,0.0,0.0,0.0,0.0,0.0,0.0,15.0
25.67,0.0,0.0,0.0,0.0,0.0,0.0,0.0,15.0
25.69,0.0,0.0,0.0,0.0,0.0,0.0,0.0,15.0
25.67,0.0,0.0,0.0,0.0,0.0,0.0,0.0,15.0
25.67,0.0,0.0,0.0,0.0,0.0,0.0,0.0,15.0
25.75,0.0,0.0,0.0,0.0,0.0,0.0,0.0,15.0
25.73,0.0,0.0,0.0,0.0,0.0,0.0,0.0,15.0
25.79,0.0,0.0,0.0,0.0,0.0,0.0,0.0,15.0
25.75,0.0,0.0,0.0,0.0,0.0,0.0,0.0,15.0
25.69,0.0,0.0,0.0,0.0,0.0,0.0,0.0,15.0
25.73,0.0,0.0,0.0,0.0,0.0,0.0,0.0,15.0
25.69,0.0,0.0,0.0,0.0,0.0,0.0,0.0,15.0
25.69,0.0,0.0,0.0,0.0,0.0,0.0,0.0,15.0
25.63,0.0,0.0,0.0,0.0,0.0,0.0,0.0,15.0
25.69,0.0,0.0,0.0,0.0,0.0,0.0,0.0,15.0
25.73,0.0,0.0,0.0,0.0,0.0,0.0,0.0,15.0
25.73,0.0,0.0,0.0,0.0,0.0,0.0,0.0,15.0
25.73,0.0,0.0,0.0,0.0,0.0,0.0,0.0,15.0
25.73,0.0,0.0,0.0,0.0,0.0,0.0,0.0,15.0
25.67,0.0,0.0,0.0,0.0,0.0,0.0,0.0,15.0
25.73,0.0,0.0,0.0,0.0,0.0,0.0,0.0,15.0
25.67,0.0,0.0,0.0,0.0,0.0,0.0,0.0,15.0
25.79,0.0,0.0,0.0,0.0,0.0,0.0,0.0,15.0
25.81,0.0,0.0,0.0,0.0,0.0,0.0,0.0,15.0
25.81,0.0,0.0,0.0,0.0,0.0,0.0,0.0,15.0
25.79,0.0,0.0,0.0,0.0,0.0,0.0,0.0,15.0
25.69,0.0,0.0,0.0,0.0,0.0,0.0,2.0,15.0
25.63,0.0,0.0,0.0,0.0,0.0,0.0,0.0,15.0
25.69,0.0,0.0,0.0,0.0,0.0,0.0,0.0,15.0
25.69,0.0,0.0,0.0,0.0,0.0,0.0,0.0,15.0
25.69,0.0,0.0,0.0,0.0,0.0,0.0,0.0,15.0
25.69,0.0,0.0,0.0,0.0,0.0,0.0,0.0,15.0
25.67,0.0,0.0,0.0,0.0,0.0,0.0,0.0,15.0
25.63,0.0,0.0,0.0,0.0,0.0,0.0,0.0,15.0
25.75,0.0,0.0,0.0,0.0,0.0,0.0,0.0,15.0
25.75,0.0,0.0,0.0,0.0,0.0,0.0,0.0,15.0
25.75,0.0,0.0,0.0,0.0,0.0,0.0,0.0,15.0
25.81,0.0,0.0,0.0,0.0,0.0,0.0,0.0,15.0
25.81,0.0,0.0,0.0,0.0,0.0,0.0,0.0,15.0
25.81,0.0,0.0,0.0,0.0,0.0,0.0,0.0,15.0
25.93,0.0,0.0,0.0,0.0,0.0,0.0,0.0,15.0
25.93,0.0,0.0,0.0,0.0,0.0,0.0,0.0,15.0
25.93,0.0,0.0,0.0,0.0,0.0,0.0,0.0,16.0
26.03,0.0,0.0,0.0,0.0,0.0,0.0,0.0,24.0
25.93,0.0,0.0,0.0,0.0,0.0,0.0,0.0,34.0
25.91,0.0,0.0,0.0,0.0,0.0,0.0,0.0,43.0
25.97,0.0,138.0,0.0,0.0,0.0,0.0,0.0,52.0
25.99,0.0,0.0,0.0,0.0,0.0,0.0,0.0,63.0
25.99,0.0,0.0,0.0,0.0,0.0,0.0,0.0,72.0
25.99,0.0,0.0,0.0,0.0,0.0,0.0,0.0,82.0
25.93,0.0,0.0,0.0,0.0,0.0,0.0,0.0,93.0
25.81,0.0,0.0,0.0,0.0,0.0,0.0,544.0,100.0
25.81,0.0,0.0,143.0,0.0,0.0,0.0,562.0,100.0
25.81,0.0,0.0,464.0,0.0,0.0,0.0,644.0,100.0
25.81,0.0,0.0,689.0,0.0,0.0,0.0,666.0,100.0
25.81,0.0,0.0,448.0,0.0,0.0,208.0,570.0,100.0
25.81,0.0,0.0,592.0,0.0,0.0,0.0,591.0,100.0
25.81,0.0,0.0,640.0,0.0,0.0,0.0,588.0,100.0
25.81,0.0,0.0,711.0,0.0,0.0,0.0,594.0,100.0
25.85,0.0,0.0,778.0,0.0,0.0,0.0,602.0,100.0
25.81,0.0,0.0,742.0,0.0,0.0,0.0,589.0,100.0
25.81,0.0,0.0,819.0,0.0,0.0,0.0,627.0,100.0
25.85,0.0,0.0,1202.0,0.0,0.0,0.0,726.0,100.0
25.81,0.0,0.0,1314.0,0.0,0.0,0.0,765.0,100.0
25.85,0.0,0.0,1379.0,0.0,0.0,0.0,780.0,100.0
25.87,0.0,0.0,1397.0,0.0,0.0,0.0,791.0,100.0
25.81,0.0,0.0,1418.0,0.0,0.0,0.0,787.0,100.0
25.85,0.0,0.0,1456.0,0.0,0.0,0.0,789.0,100.0
25.91,0.0,0.0,1470.0,0.0,0.0,0.0,800.0,100.0
25.79,0.0,0.0,1487.0,0.0,0.0,0.0,797.0,100.0
25.93,0.0,0.0,1509.0,0.0,0.0,0.0,800.0,100.0
25.97,0.0,0.0,1565.0,0.0,0.0,0.0,821.0,100.0
25.99,0.0,0.0,1553.0,0.0,0.0,0.0,821.0,100.0
26.05,0.0,0.0,1557.0,0.0,0.0,0.0,831.0,100.0
26.05,0.0,0.0,1570.0,0.0,0.0,0.0,841.0,100.0
25.93,0.0,0.0,1564.0,0.0,0.0,0.0,847.0,100.0
25.99,0.0,0.0,1535.0,0.0,0.0,0.0,839.0,100.0
26.03,0.0,0.0,1535.0,0.0,0.0,0.0,849.0,100.0
25.93,0.0,0.0,1535.0,0.0,0.0,0.0,853.0,100.0
25.91,0.0,0.0,1535.0,0.0,0.0,0.0,854.0,100.0
25.93,0.0,0.0,1535.0,0.0,0.0,0.0,856.0,100.0
25.85,0.0,0.0,1535.0,0.0,0.0,0.0,854.0,100.0
25.91,0.0,0.0,1535.0,0.0,0.0,0.0,855.0,100.0
25.85,0.0,0.0,1534.0,0.0,0.0,0.0,857.0,100.0
25.91,0.0,0.0,1535.0,0.0,0.0,0.0,851.0,100.0
25.91,0.0,0.0,1535.0,0.0,0.0,0.0,848.0,100.0
25.93,0.0,0.0,1535.0,0.0,0.0,0.0,864.0,100.0
25.93,0.0,0.0,1558.0,0.0,0.0,0.0,855.0,100.0
25.99,0.0,0.0,1559.0,0.0,0.0,252.0,857.0,100.0
26.05,0.0,0.0,1565.0,0.0,0.0,0.0,851.0,100.0
26.03,0.0,0.0,1582.0,0.0,0.0,0.0,864.0,100.0
25.99,0.0,0.0,1579.0,0.0,0.0,0.0,862.0,100.0
25.93,0.0,0.0,1582.0,0.0,0.0,0.0,852.0,100.0
25.85,0.0,0.0,1569.0,0.0,0.0,0.0,847.0,100.0
25.81,0.0,0.0,1552.0,0.0,0.0,0.0,859.0,100.0
25.93,0.0,0.0,1524.0,0.0,0.0,0.0,861.0,100.0
25.97,0.0,0.0,1530.0,0.0,0.0,0.0,870.0,100.0
25.85,0.0,0.0,1535.0,0.0,0.0,0.0,869.0,100.0
25.85,0.0,0.0,1535.0,0.0,0.0,0.0,862.0,100.0
25.87,0.0,0.0,1520.0,0.0,0.0,0.0,876.0,100.0
25.85,0.0,0.0,1491.0,0.0,0.0,0.0,878.0,100.0
25.87,0.0,0.0,1510.0,0.0,0.0,0.0,875.0,100.0
25.81,0.0,0.0,1521.0,0.0,0.0,0.0,878.0,100.0
25.81,0.0,0.0,1483.0,0.0,0.0,0.0,882.0,100.0
25.85,0.0,0.0,1429.0,0.0,0.0,0.0,894.0,100.0
25.97,0.0,0.0,1424.0,0.0,0.0,0.0,884.0,100.0
25.91,0.0,0.0,1399.0,0.0,0.0,0.0,898.0,100.0
25.91,0.0,0.0,1369.0,0.0,0.0,0.0,895.0,100.0
25.93,0.0,0.0,1357.0,0.0,0.0,0.0,896.0,100.0
25.99,0.0,0.0,1374.0,0.0,0.0,0.0,898.0,100.0
25.97,0.0,0.0,1360.0,0.0,0.0,0.0,902.0,100.0
25.85,0.0,0.0,1372.0,0.0,0.0,0.0,890.0,100.0
25.97,0.0,0.0,1374.0,0.0,0.0,0.0,895.0,100.0
25.91,0.0,0.0,1369.0,0.0,0.0,0.0,897.0,100.0
25.85,0.0,0.0,1367.0,0.0,0.0,0.0,886.0,100.0
25.85,0.0,0.0,1379.0,0.0,0.0,0.0,893.0,100.0
25.91,0.0,0.0,1377.0,0.0,0.0,0.0,892.0,100.0
25.81,0.0,0.0,1378.0,0.0,0.0,0.0,895.0,100.0
25.85,0.0,0.0,1371.0,0.0,0.0,0.0,892.0,100.0
25.85,0.0,0.0,1379.0,0.0,0.0,0.0,885.0,100.0
25.81,0.0,0.0,1371.0,0.0,0.0,0.0,883.0,100.0
25.81,0.0,0.0,1379.0,0.0,0.0,0.0,891.0,100.0
25.85,0.0,0.0,1360.0,0.0,0.0,0.0,891.0,100.0
25.85,0.0,0.0,1375.0,0.0,0.0,0.0,886.0,100.0
25.87,0.0,0.0,1383.0,0.0,0.0,0.0,893.0,100.0
25.91,0.0,0.0,1381.0,0.0,0.0,0.0,898.0,100.0
25.85,0.0,0.0,1375.0,0.0,0.0,0.0,892.0,100.0
25.85,0.0,0.0,1377.0,0.0,0.0,0.0,896.0,100.0
25.91,361.0,0.0,1377.0,0.0,0.0,0.0,893.0,100.0
25.87,0.0,0.0,1377.0,0.0,0.0,0.0,891.0,100.0
25.81,0.0,0.0,1382.0,0.0,0.0,0.0,896.0,100.0
25.85,0.0,0.0,1383.0,0.0,0.0,0.0,897.0,100.0
25.97,0.0,0.0,1375.0,0.0,0.0,0.0,899.0,100.0
25.85,0.0,0.0,1383.0,0.0,0.0,0.0,905.0,100.0
25.91,0.0,0.0,1383.0,0.0,0.0,0.0,895.0,100.0
25.91,0.0,0.0,17.0,0.0,0.0,0.0,0.0,15.0
26.17,0.0,0.0,0.0,0.0,0.0,0.0,0.0,15.0
25.91,0.0,0.0,0.0,0.0,0.0,0.0,0.0,15.0
25.81,0.0,0.0,0.0,0.0,0.0,0.0,0.0,15.0
25.81,0.0,0.0,0.0,0.0,0.0,0.0,0.0,15.0
25.87,0.0,0.0,0.0,0.0,0.0,0.0,0.0,15.0
25.79,0.0,0.0,0.0,0.0,0.0,0.0,0.0,15.0
25.75,0.0,0.0,0.0,0.0,0.0,0.0,0.0,15.0
25.79,0.0,0.0,0.0,0.0,0.0,0.0,0.0,15.0
25.81,0.0,0.0,0.0,0.0,0.0,0.0,0.0,15.0
25.79,0.0,0.0,0.0,0.0,0.0,0.0,0.0,15.0
25.93,0.0,0.0,0.0,0.0,0.0,0.0,0.0,15.0
25.97,0.0,0.0,0.0,0.0,0.0,0.0,0.0,15.0
25.79,0.0,0.0,0.0,0.0,0.0,0.0,0.0,15.0
25.81,0.0,0.0,0.0,0.0,0.0,0.0,0.0,15.0
25.85,0.0,0.0,0.0,0.0,0.0,0.0,0.0,15.0
26.61,0.0,0.0,0.0,0.0,0.0,0.0,0.0,15.0
26.29,0.0,0.0,0.0,0.0,0.0,0.0,0.0,15.0
26.65,0.0,0.0,0.0,0.0,0.0,0.0,0.0,15.0
25.79,0.0,0.0,0.0,0.0,0.0,0.0,0.0,15.0
25.81,0.0,0.0,0.0,0.0,0.0,0.0,0.0,15.0
25.81,0.0,0.0,0.0,0.0,0.0,0.0,0.0,15.0
25.85,0.0,0.0,0.0,0.0,0.0,0.0,0.0,15.0
26.11,0.0,0.0,0.0,0.0,0.0,0.0,0.0,15.0
26.49,0.0,0.0,0.0,0.0,0.0,0.0,0.0,15.0
26.67,0.0,0.0,0.0,0.0,0.0,0.0,0.0,15.0
26.99,0.0,0.0,0.0,0.0,0.0,0.0,0.0,15.0
26.73,0.0,0.0,0.0,0.0,0.0,0.0,0.0,15.0
26.35,0.0,0.0,0.0,0.0,0.0,0.0,0.0,15.0
25.93,0.0,0.0,0.0,0.0,0.0,0.0,0.0,15.0
25.91,0.0,0.0,0.0,0.0,0.0,0.0,0.0,15.0
25.91,0.0,0.0,0.0,0.0,0.0,0.0,0.0,15.0
25.99,0.0,0.0,0.0,0.0,0.0,0.0,0.0,15.0
25.91,0.0,0.0,0.0,0.0,0.0,0.0,0.0,15.0
25.91,0.0,0.0,0.0,0.0,0.0,0.0,0.0,15.0
25.85,0.0,0.0,0.0,0.0,0.0,0.0,0.0,15.0
25.93,0.0,0.0,0.0,0.0,0.0,0.0,0.0,15.0
25.99,0.0,0.0,0.0,0.0,0.0,0.0,0.0,15.0
25.99,0.0,0.0,0.0,0.0,0.0,0.0,0.0,15.0
25.99,0.0,0.0,0.0,0.0,0.0,0.0,0.0,15.0
25.99,0.0,0.0,0.0,0.0,0.0,0.0,0.0,15.0
25.97,0.0,0.0,0.0,0.0,0.0,0.0,0.0,15.0
25.93,0.0,0.0,0.0,0.0,0.0,0.0,0.0,15.0
26.03,0.0,0.0,0.0,0.0,0.0,0.0,0.0,15.0
26.35,0.0,0.0,0.0,0.0,0.0,0.0,0.0,15.0
26.67,0.0,0.0,0.0,0.0,0.0,0.0,0.0,15.0
29.57,0.0,0.0,0.0,0.0,0.0,0.0,0.0,15.0
32.39,0.0,0.0,0.0,0.0,0.0,0.0,0.0,15.0
36.77,0.0,0.0,0.0,0.0,0.0,0.0,0.0,15.0
38.89,0.0,0.0,0.0,0.0,0.0,0.0,0.0,15.0
39.93,0.0,0.0,0.0,0.0,0.0,0.0,0.0,15.0
40.25,0.0,0.0,0.0,0.0,0.0,0.0,0.0,19.0
40.45,0.0,0.0,0.0,0.0,0.0,0.0,0.0,30.0
40.71,0.0,0.0,0.0,0.0,0.0,0.0,0.0,41.0
40.47,0.0,0.0,0.0,0.0,0.0,0.0,0.0,51.0
40.79,0.0,0.0,0.0,0.0,0.0,0.0,0.0,61.0
40.67,0.0,0.0,0.0,0.0,0.0,0.0,443.0,71.0
40.63,0.0,690.0,0.0,0.0,0.0,0.0,2275.0,81.0
40.51,0.0,720.0,0.0,0.0,70.0,0.0,2369.0,90.0
40.51,0.0,737.0,0.0,0.0,112.0,0.0,2419.0,93.0
40.45,0.0,742.0,0.0,0.0,156.0,0.0,2449.0,93.0
40.45,0.0,755.0,0.0,0.0,113.0,0.0,2455.0,93.0
40.45,0.0,757.0,0.0,0.0,122.0,0.0,2479.0,93.0
40.39,0.0,768.0,0.0,0.0,113.0,0.0,2500.0,93.0
40.35,0.0,763.0,0.0,0.0,113.0,0.0,2501.0,93.0
40.25,0.0,774.0,0.0,0.0,208.0,0.0,2517.0,93.0
40.17,0.0,743.0,0.0,0.0,112.0,0.0,2467.0,93.0
40.21,0.0,656.0,0.0,0.0,19.0,0.0,2124.0,93.0
40.29,0.0,659.0,0.0,0.0,41.0,0.0,2147.0,93.0
40.37,0.0,672.0,0.0,0.0,25.0,0.0,2117.0,93.0
40.35,0.0,685.0,0.0,0.0,58.0,0.0,2108.0,93.0
40.45,0.0,698.0,0.0,0.0,84.0,0.0,2078.0,93.0
40.45,0.0,695.0,0.0,0.0,113.0,0.0,2059.0,93.0
40.51,0.0,698.0,0.0,0.0,146.0,0.0,2091.0,93.0
40.39,0.0,711.0,0.0,0.0,161.0,0.0,2105.0,93.0
40.53,0.0,706.0,0.0,0.0,162.0,0.0,2138.0,93.0
40.57,0.0,718.0,0.0,0.0,164.0,0.0,2155.0,93.0
40.63,0.0,717.0,0.0,0.0,162.0,0.0,2154.0,93.0
40.57,0.0,709.0,0.0,0.0,96.0,0.0,2163.0,93.0
40.51,0.0,709.0,0.0,0.0,108.0,0.0,2193.0,93.0
40.43,0.0,704.0,0.0,0.0,115.0,0.0,2195.0,93.0
40.47,0.0,711.0,0.0,0.0,74.0,0.0,2190.0,93.0
40.53,0.0,720.0,0.0,0.0,198.0,0.0,2144.0,93.0
40.53,0.0,753.0,0.0,0.0,152.0,0.0,2164.0,93.0
40.53,0.0,721.0,0.0,0.0,155.0,0.0,2179.0,93.0
40.57,0.0,724.0,0.0,0.0,144.0,0.0,2205.0,93.0
40.61,0.0,717.0,0.0,0.0,155.0,0.0,2196.0,93.0
40.65,0.0,727.0,0.0,0.0,54.0,0.0,2183.0,93.0
40.65,0.0,707.0,0.0,0.0,59.0,0.0,2236.0,93.0
40.71,0.0,697.0,0.0,0.0,64.0,0.0,2248.0,93.0
40.63,0.0,631.0,0.0,0.0,15.0,0.0,2262.0,93.0
40.57,0.0,708.0,0.0,0.0,67.0,0.0,2230.0,93.0
40.53,0.0,711.0,0.0,0.0,110.0,0.0,2212.0,93.0
40.45,0.0,719.0,0.0,0.0,145.0,0.0,2196.0,93.0
40.43,0.0,736.0,0.0,0.0,72.0,0.0,2168.0,93.0
40.43,0.0,722.0,0.0,0.0,125.0,0.0,2223.0,93.0
40.43,0.0,711.0,0.0,0.0,121.0,0.0,2193.0,93.0
40.45,0.0,711.0,0.0,0.0,105.0,0.0,2243.0,93.0
40.45,0.0,715.0,0.0,0.0,102.0,0.0,2243.0,93.0
40.47,0.0,695.0,0.0,0.0,57.0,0.0,2269.0,93.0
40.53,0.0,715.0,0.0,0.0,114.0,0.0,2225.0,93.0
40.43,0.0,727.0,0.0,0.0,116.0,0.0,2227.0,93.0
40.39,0.0,738.0,0.0,0.0,134.0,0.0,2196.0,93.0
40.39,0.0,736.0,0.0,0.0,87.0,0.0,2164.0,93.0
40.45,0.0,721.0,0.0,0.0,0.0,0.0,2223.0,93.0
40.53,0.0,734.0,0.0,0.0,132.0,0.0,2229.0,93.0
40.55,0.0,724.0,0.0,0.0,135.0,0.0,2231.0,93.0
40.61,0.0,727.0,0.0,0.0,139.0,0.0,2231.0,93.0
40.55,0.0,727.0,0.0,0.0,134.0,0.0,2237.0,93.0
40.63,0.0,726.0,0.0,0.0,144.0,0.0,2188.0,93.0
40.65,0.0,722.0,0.0,0.0,166.0,0.0,2183.0,93.0
40.63,0.0,727.0,0.0,0.0,179.0,0.0,2199.0,93.0
40.57,0.0,722.0,0.0,0.0,182.0,0.0,2202.0,93.0
40.57,0.0,736.0,0.0,0.0,163.0,0.0,2195.0,93.0
40.57,0.0,729.0,0.0,0.0,174.0,0.0,2213.0,93.0
40.51,0.0,729.0,0.0,0.0,133.0,0.0,2236.0,93.0
40.47,0.0,735.0,0.0,0.0,133.0,0.0,2240.0,93.0
40.47,0.0,733.0,0.0,0.0,131.0,0.0,2245.0,93.0
40.53,0.0,735.0,0.0,0.0,195.0,0.0,2227.0,93.0
40.57,0.0,731.0,0.0,0.0,159.0,0.0,2194.0,93.0
40.61,0.0,731.0,0.0,0.0,180.0,0.0,2201.0,93.0
40.57,0.0,726.0,0.0,0.0,190.0,0.0,2215.0,93.0
40.67,0.0,848.0,0.0,0.0,52.0,0.0,2210.0,93.0
40.73,0.0,732.0,0.0,0.0,137.0,0.0,2250.0,93.0
40.73,0.0,741.0,0.0,0.0,139.0,0.0,2252.0,93.0
40.73,0.0,740.0,0.0,0.0,144.0,0.0,2252.0,93.0
40.71,0.0,733.0,0.0,0.0,154.0,0.0,2228.0,93.0
40.81,0.0,742.0,0.0,0.0,177.0,0.0,2231.0,93.0
40.75,0.0,741.0,0.0,0.0,177.0,0.0,2220.0,93.0
40.75,0.0,731.0,0.0,0.0,198.0,0.0,2216.0,93.0
40.83,0.0,731.0,0.0,0.0,198.0,0.0,2224.0,93.0
40.79,0.0,738.0,0.0,0.0,179.0,0.0,2245.0,93.0
40.73,0.0,745.0,0.0,0.0,192.0,0.0,2243.0,93.0
40.73,0.0,746.0,0.0,0.0,186.0,0.0,2244.0,93.0
40.71,0.0,735.0,0.0,0.0,112.0,0.0,2246.0,93.0
40.67,0.0,739.0,0.0,0.0,192.0,0.0,2242.0,93.0
40.61,0.0,750.0,0.0,0.0,194.0,0.0,2238.0,93.0
40.55,0.0,741.0,0.0,0.0,193.0,0.0,2240.0,93.0
40.57,0.0,752.0,0.0,0.0,192.0,0.0,2241.0,93.0
40.53,0.0,742.0,0.0,0.0,198.0,0.0,2243.0,93.0
40.53,0.0,748.0,0.0,0.0,197.0,0.0,2245.0,93.0
40.53,0.0,745.0,0.0,0.0,197.0,0.0,2241.0,93.0
40.57,0.0,749.0,0.0,0.0,841.0,0.0,2248.0,93.0
40.53,0.0,752.0,0.0,0.0,197.0,0.0,2246.0,93.0
40.57,0.0,0.0,0.0,0.0,0.0,0.0,11.0,15.0
32.75,0.0,0.0,0.0,0.0,0.0,0.0,0.0,15.0
27.79,0.0,0.0,0.0,0.0,0.0,0.0,0.0,15.0
27.15,0.0,0.0,0.0,0.0,0.0,0.0,0.0,15.0
26.91,0.0,0.0,0.0,0.0,0.0,0.0,0.0,15.0
26.83,0.0,0.0,0.0,0.0,0.0,0.0,0.0,15.0
27.21,0.0,0.0,0.0,0.0,0.0,0.0,0.0,15.0
26.99,0.0,0.0,0.0,0.0,0.0,0.0,0.0,15.0
26.91,0.0,0.0,0.0,0.0,0.0,0.0,0.0,15.0
26.23,0.0,0.0,0.0,0.0,0.0,0.0,0.0,15.0
26.23,0.0,0.0,0.0,0.0,0.0,0.0,0.0,15.0
26.17,0.0,0.0,0.0,0.0,0.0,0.0,0.0,15.0
26.15,0.0,0.0,0.0,0.0,0.0,0.0,0.0,15.0
26.15,0.0,0.0,0.0,0.0,0.0,0.0,0.0,15.0
26.21,0.0,0.0,0.0,0.0,0.0,0.0,0.0,15.0
26.17,0.0,274.0,0.0,0.0,0.0,0.0,0.0,15.0
26.15,0.0,0.0,0.0,0.0,0.0,0.0,0.0,15.0
26.11,0.0,0.0,0.0,0.0,0.0,0.0,0.0,15.0
26.23,0.0,0.0,0.0,0.0,0.0,0.0,0.0,15.0
26.21,0.0,0.0,0.0,0.0,0.0,0.0,0.0,15.0
26.27,0.0,0.0,0.0,0.0,0.0,0.0,0.0,15.0
26.23,0.0,0.0,0.0,0.0,0.0,0.0,0.0,15.0
26.23,0.0,0.0,0.0,0.0,0.0,0.0,0.0,15.0
26.17,0.0,0.0,0.0,0.0,0.0,0.0,0.0,15.0
26.15,0.0,0.0,0.0,0.0,0.0,0.0,0.0,15.0
26.15,0.0,0.0,0.0,0.0,0.0,0.0,0.0,15.0
26.09,0.0,0.0,0.0,0.0,0.0,0.0,0.0,15.0
26.15,0.0,0.0,0.0,0.0,0.0,0.0,0.0,15.0
26.05,0.0,0.0,0.0,0.0,0.0,0.0,0.0,15.0
26.11,0.0,0.0,0.0,0.0,0.0,0.0,0.0,15.0
26.15,0.0,0.0,0.0,0.0,0.0,0.0,0.0,15.0
26.17,0.0,0.0,0.0,0.0,0.0,0.0,0.0,15.0
26.27,0.0,0.0,0.0,0.0,0.0,0.0,0.0,15.0
26.23,0.0,0.0,0.0,0.0,0.0,0.0,0.0,15.0
26.23,0.0,0.0,0.0,0.0,0.0,0.0,0.0,15.0
26.27,0.0,0.0,0.0,0.0,0.0,0.0,0.0,15.0
26.23,0.0,0.0,0.0,0.0,0.0,0.0,0.0,15.0
26.27,0.0,0.0,0.0,0.0,0.0,0.0,0.0,15.0
26.23,0.0,0.0,0.0,0.0,0.0,0.0,0.0,15.0
26.23,0.0,0.0,0.0,0.0,0.0,0.0,0.0,15.0
26.27,0.0,0.0,0.0,0.0,0.0,0.0,0.0,15.0
26.23,0.0,0.0,0.0,0.0,0.0,0.0,0.0,15.0
26.15,0.0,0.0,0.0,0.0,0.0,0.0,0.0,15.0
25.85,0.0,0.0,0.0,0.0,0.0,0.0,0.0,15.0
25.93,0.0,0.0,0.0,0.0,0.0,0.0,0.0,15.0
25.97,0.0,0.0,0.0,0.0,0.0,0.0,0.0,15.0
25.91,0.0,0.0,0.0,0.0,0.0,0.0,0.0,15.0
25.91,0.0,0.0,0.0,0.0,0.0,0.0,0.0,15.0
25.93,0.0,0.0,0.0,0.0,0.0,0.0,0.0,15.0
25.85,0.0,0.0,0.0,0.0,0.0,0.0,0.0,15.0
25.87,0.0,0.0,0.0,0.0,0.0,0.0,0.0,15.0
25.85,0.0,0.0,0.0,0.0,0.0,0.0,0.0,15.0
25.91,0.0,0.0,0.0,0.0,0.0,0.0,0.0,23.0
25.87,0.0,0.0,0.0,0.0,0.0,0.0,0.0,32.0
25.93,0.0,0.0,0.0,0.0,0.0,0.0,0.0,40.0
25.99,0.0,0.0,0.0,0.0,0.0,0.0,0.0,41.0
26.03,0.0,0.0,0.0,0.0,0.0,0.0,0.0,51.0
25.87,0.0,0.0,0.0,0.0,0.0,0.0,0.0,61.0
25.87,0.0,0.0,0.0,0.0,0.0,0.0,0.0,73.0
25.81,0.0,0.0,0.0,0.0,0.0,0.0,0.0,82.0
25.79,0.0,0.0,0.0,0.0,0.0,543.0,0.0,93.0
25.79,0.0,0.0,0.0,0.0,0.0,586.0,0.0,100.0
25.85,0.0,0.0,0.0,0.0,0.0,621.0,0.0,100.0
25.81,0.0,0.0,0.0,0.0,0.0,643.0,0.0,100.0
25.85,0.0,0.0,0.0,0.0,0.0,656.0,0.0,100.0
25.81,0.0,0.0,0.0,0.0,0.0,658.0,3.0,100.0
25.81,0.0,0.0,0.0,0.0,0.0,661.0,0.0,100.0
25.87,0.0,0.0,0.0,0.0,0.0,594.0,0.0,100.0
25.85,0.0,0.0,0.0,0.0,0.0,0.0,0.0,100.0
25.87,0.0,0.0,132.0,0.0,0.0,0.0,0.0,100.0
25.85,0.0,0.0,0.0,0.0,0.0,0.0,0.0,100.0
25.91,0.0,0.0,0.0,0.0,0.0,0.0,0.0,100.0
25.91,0.0,0.0,0.0,0.0,0.0,0.0,0.0,100.0
25.93,0.0,0.0,0.0,0.0,0.0,0.0,0.0,100.0
25.91,0.0,0.0,0.0,0.0,0.0,0.0,0.0,100.0
25.97,0.0,0.0,0.0,0.0,0.0,0.0,0.0,100.0
25.81,0.0,0.0,0.0,0.0,0.0,0.0,0.0,100.0
25.97,0.0,0.0,0.0,0.0,0.0,0.0,0.0,100.0
25.85,0.0,0.0,0.0,0.0,0.0,0.0,0.0,100.0
25.81,0.0,0.0,0.0,0.0,0.0,0.0,0.0,100.0
25.85,0.0,0.0,0.0,0.0,0.0,0.0,0.0,100.0
25.85,0.0,0.0,0.0,0.0,0.0,0.0,0.0,100.0
25.85,0.0,0.0,0.0,0.0,0.0,0.0,0.0,100.0
25.85,0.0,0.0,0.0,0.0,0.0,0.0,0.0,100.0
25.79,0.0,0.0,0.0,0.0,0.0,0.0,0.0,100.0
25.79,0.0,0.0,0.0,0.0,0.0,0.0,0.0,100.0
25.85,0.0,0.0,0.0,0.0,0.0,0.0,0.0,100.0
25.85,0.0,0.0,0.0,0.0,0.0,0.0,0.0,100.0
25.85,0.0,0.0,0.0,0.0,0.0,0.0,0.0,100.0
25.81,0.0,0.0,0.0,0.0,0.0,0.0,0.0,100.0
25.85,0.0,0.0,0.0,0.0,0.0,0.0,0.0,100.0
25.81,0.0,0.0,0.0,0.0,0.0,0.0,0.0,100.0
25.79,0.0,0.0,0.0,0.0,0.0,0.0,0.0,100.0
25.75,0.0,0.0,0.0,0.0,0.0,0.0,0.0,100.0
25.79,172.0,0.0,0.0,0.0,0.0,0.0,0.0,100.0
25.79,0.0,0.0,0.0,0.0,0.0,0.0,0.0,100.0
25.75,0.0,0.0,0.0,0.0,0.0,0.0,0.0,100.0
25.69,0.0,0.0,0.0,0.0,0.0,0.0,0.0,100.0
25.69,0.0,0.0,0.0,0.0,0.0,0.0,0.0,100.0
25.67,0.0,0.0,0.0,0.0,0.0,0.0,0.0,100.0
25.69,0.0,0.0,0.0,0.0,0.0,0.0,0.0,100.0
25.67,0.0,0.0,0.0,0.0,0.0,0.0,0.0,100.0
25.63,0.0,0.0,0.0,0.0,0.0,0.0,0.0,100.0
25.69,0.0,0.0,0.0,0.0,0.0,0.0,0.0,100.0
25.69,0.0,0.0,0.0,0.0,0.0,0.0,0.0,100.0
25.69,0.0,0.0,0.0,0.0,0.0,0.0,0.0,100.0
25.79,0.0,0.0,0.0,0.0,0.0,0.0,0.0,100.0
25.81,0.0,0.0,0.0,0.0,0.0,0.0,0.0,100.0
25.87,0.0,0.0,0.0,0.0,0.0,0.0,0.0,100.0
25.81,0.0,0.0,0.0,0.0,0.0,0.0,0.0,100.0
25.87,0.0,0.0,0.0,0.0,0.0,0.0,0.0,100.0
25.87,0.0,0.0,0.0,0.0,0.0,0.0,0.0,100.0
25.81,0.0,0.0,0.0,0.0,0.0,0.0,0.0,100.0
25.75,0.0,0.0,0.0,0.0,0.0,0.0,0.0,100.0
25.75,0.0,0.0,0.0,0.0,0.0,0.0,0.0,100.0
25.91,0.0,0.0,0.0,0.0,0.0,0.0,0.0,100.0
25.75,0.0,0.0,0.0,0.0,0.0,0.0,0.0,100.0
25.81,0.0,0.0,0.0,0.0,0.0,0.0,0.0,100.0
25.81,0.0,0.0,0.0,0.0,0.0,0.0,0.0,100.0
25.81,0.0,0.0,0.0,0.0,0.0,0.0,0.0,100.0
25.75,0.0,0.0,0.0,0.0,0.0,0.0,0.0,100.0
25.81,0.0,0.0,0.0,0.0,0.0,0.0,0.0,100.0
25.79,0.0,0.0,0.0,0.0,0.0,0.0,0.0,100.0
25.79,0.0,0.0,0.0,0.0,0.0,0.0,0.0,100.0
25.73,0.0,0.0,0.0,0.0,0.0,0.0,0.0,100.0
25.75,0.0,0.0,0.0,0.0,0.0,0.0,0.0,100.0
25.73,0.0,0.0,0.0,0.0,0.0,0.0,0.0,100.0
25.79,0.0,0.0,0.0,0.0,0.0,0.0,0.0,100.0
25.73,0.0,0.0,0.0,0.0,0.0,0.0,0.0,100.0
25.73,0.0,0.0,0.0,0.0,0.0,0.0,0.0,100.0
25.69,0.0,0.0,0.0,0.0,0.0,0.0,0.0,100.0
25.67,0.0,0.0,0.0,0.0,0.0,0.0,0.0,100.0
25.69,0.0,0.0,0.0,0.0,0.0,0.0,0.0,100.0
25.69,0.0,0.0,0.0,0.0,0.0,0.0,0.0,100.0
25.73,0.0,0.0,0.0,0.0,0.0,0.0,0.0,100.0
25.69,0.0,0.0,0.0,0.0,0.0,0.0,0.0,100.0
25.63,0.0,0.0,0.0,0.0,0.0,0.0,0.0,100.0
25.61,0.0,0.0,0.0,0.0,0.0,0.0,0.0,100.0
25.61,0.0,0.0,0.0,0.0,0.0,0.0,0.0,100.0
25.55,0.0,0.0,0.0,0.0,0.0,0.0,0.0,100.0
25.61,0.0,0.0,0.0,0.0,0.0,0.0,0.0,100.0
25.67,0.0,0.0,0.0,0.0,0.0,0.0,0.0,100.0
25.69,0.0,0.0,0.0,0.0,0.0,0.0,0.0,15.0
25.75,0.0,0.0,0.0,0.0,0.0,0.0,0.0,15.0
25.91,320.0,0.0,0.0,0.0,0.0,0.0,0.0,15.0
25.97,0.0,0.0,0.0,0.0,0.0,0.0,0.0,15.0
25.97,0.0,0.0,0.0,0.0,0.0,0.0,0.0,15.0
25.99,0.0,0.0,0.0,0.0,0.0,0.0,0.0,15.0
26.23,0.0,0.0,0.0,0.0,0.0,0.0,0.0,15.0
26.09,0.0,0.0,0.0,0.0,0.0,0.0,0.0,15.0
26.15,0.0,0.0,0.0,0.0,0.0,0.0,0.0,15.0
26.15,0.0,0.0,0.0,0.0,0.0,0.0,0.0,15.0
26.03,0.0,0.0,0.0,0.0,0.0,0.0,0.0,15.0
26.09,0.0,0.0,0.0,0.0,0.0,0.0,0.0,15.0
26.15,0.0,0.0,0.0,0.0,0.0,0.0,0.0,15.0
26.09,0.0,0.0,0.0,0.0,0.0,0.0,0.0,15.0
25.91,0.0,0.0,0.0,0.0,0.0,0.0,0.0,15.0
25.93,0.0,0.0,0.0,0.0,0.0,0.0,0.0,15.0
25.91,0.0,0.0,0.0,0.0,0.0,0.0,0.0,15.0
25.93,0.0,0.0,0.0,0.0,0.0,0.0,0.0,15.0
25.97,0.0,0.0,0.0,0.0,0.0,0.0,0.0,15.0
25.97,0.0,0.0,0.0,0.0,0.0,0.0,0.0,15.0
25.91,0.0,0.0,0.0,0.0,0.0,0.0,0.0,15.0
25.93,0.0,0.0,0.0,0.0,0.0,0.0,0.0,15.0
25.85,0.0,0.0,0.0,0.0,0.0,0.0,0.0,15.0
25.91,0.0,0.0,0.0,0.0,0.0,0.0,0.0,15.0
25.91,0.0,0.0,0.0,0.0,0.0,0.0,0.0,15.0
25.87,0.0,0.0,0.0,0.0,0.0,0.0,0.0,15.0
25.93,0.0,0.0,0.0,0.0,0.0,0.0,0.0,15.0
25.91,0.0,0.0,0.0,0.0,0.0,0.0,0.0,15.0
25.85,0.0,0.0,0.0,0.0,0.0,0.0,0.0,15.0
25.85,0.0,0.0,0.0,0.0,0.0,0.0,0.0,15.0
25.91,0.0,0.0,0.0,0.0,0.0,0.0,0.0,15.0
25.93,0.0,0.0,0.0,0.0,0.0,0.0,0.0,15.0
25.91,0.0,0.0,0.0,0.0,0.0,0.0,0.0,15.0
25.97,0.0,0.0,0.0,0.0,0.0,0.0,0.0,15.0
25.97,0.0,0.0,0.0,0.0,0.0,0.0,0.0,15.0
25.93,0.0,0.0,0.0,0.0,0.0,0.0,0.0,15.0
25.93,0.0,0.0,0.0,0.0,0.0,0.0,0.0,15.0
25.93,0.0,0.0,0.0,0.0,0.0,0.0,0.0,15.0
25.97,0.0,0.0,0.0,0.0,0.0,0.0,0.0,15.0
25.93,0.0,0.0,0.0,0.0,0.0,0.0,0.0,15.0
25.87,0.0,0.0,0.0,0.0,0.0,0.0,0.0,15.0
25.85,0.0,0.0,0.0,0.0,0.0,0.0,0.0,15.0
25.81,0.0,0.0,0.0,0.0,0.0,0.0,0.0,15.0
25.81,0.0,0.0,0.0,0.0,0.0,0.0,0.0,15.0
25.69,0.0,0.0,0.0,0.0,0.0,0.0,0.0,15.0
25.73,0.0,0.0,0.0,0.0,0.0,0.0,0.0,15.0
25.55,0.0,0.0,0.0,0.0,0.0,0.0,0.0,15.0
25.35,0.0,0.0,0.0,0.0,0.0,0.0,0.0,15.0
25.31,0.0,0.0,0.0,0.0,0.0,0.0,0.0,15.0
25.37,0.0,0.0,0.0,0.0,0.0,0.0,0.0,15.0
25.41,0.0,0.0,0.0,0.0,0.0,0.0,0.0,15.0
25.19,0.0,0.0,0.0,0.0,0.0,0.0,0.0,15.0
25.17,0.0,0.0,0.0,0.0,0.0,0.0,0.0,15.0
25.29,0.0,0.0,0.0,0.0,0.0,0.0,0.0,24.0
25.41,0.0,0.0,0.0,0.0,0.0,0.0,0.0,32.0
25.31,0.0,0.0,0.0,0.0,0.0,0.0,0.0,43.0
25.37,0.0,0.0,0.0,0.0,0.0,0.0,0.0,54.0
25.31,0.0,0.0,0.0,0.0,0.0,344.0,0.0,63.0
25.35,0.0,0.0,0.0,0.0,0.0,0.0,208.0,73.0
25.37,0.0,288.0,0.0,0.0,101.0,0.0,668.0,83.0
25.31,0.0,320.0,0.0,0.0,0.0,0.0,2088.0,93.0
25.29,0.0,309.0,0.0,0.0,0.0,0.0,2136.0,100.0
25.31,224.0,352.0,0.0,0.0,0.0,0.0,2168.0,100.0
25.31,0.0,342.0,0.0,0.0,0.0,0.0,2222.0,100.0
25.31,0.0,348.0,0.0,0.0,0.0,0.0,2235.0,100.0
25.35,0.0,346.0,0.0,0.0,0.0,0.0,2251.0,100.0
25.35,0.0,350.0,0.0,0.0,0.0,0.0,2274.0,100.0
25.31,0.0,342.0,0.0,0.0,0.0,0.0,2268.0,100.0
25.35,0.0,0.0,0.0,0.0,0.0,0.0,1195.0,100.0
25.35,0.0,0.0,0.0,0.0,0.0,0.0,662.0,100.0
25.41,0.0,0.0,0.0,0.0,0.0,0.0,483.0,100.0
25.29,0.0,0.0,0.0,0.0,0.0,0.0,385.0,100.0
25.37,0.0,0.0,0.0,0.0,0.0,0.0,100.0,100.0
25.37,0.0,0.0,0.0,0.0,0.0,0.0,0.0,100.0
25.43,0.0,0.0,0.0,0.0,0.0,0.0,0.0,100.0
25.43,0.0,0.0,0.0,0.0,0.0,0.0,0.0,100.0
25.43,0.0,0.0,0.0,0.0,0.0,0.0,0.0,100.0
25.41,0.0,0.0,0.0,0.0,0.0,0.0,0.0,100.0
25.35,0.0,0.0,0.0,0.0,0.0,0.0,0.0,100.0
25.37,0.0,0.0,0.0,0.0,0.0,0.0,0.0,100.0
25.35,0.0,0.0,0.0,0.0,0.0,0.0,0.0,100.0
25.37,0.0,0.0,0.0,0.0,0.0,0.0,0.0,100.0
25.41,0.0,0.0,0.0,0.0,0.0,0.0,0.0,100.0
25.41,0.0,0.0,0.0,0.0,0.0,0.0,0.0,100.0
25.31,0.0,0.0,0.0,0.0,0.0,0.0,0.0,100.0
25.31,0.0,0.0,0.0,0.0,0.0,0.0,0.0,100.0
25.37,0.0,0.0,0.0,0.0,0.0,0.0,0.0,100.0
25.37,0.0,0.0,0.0,0.0,0.0,0.0,0.0,100.0
25.37,0.0,0.0,0.0,0.0,0.0,0.0,0.0,100.0
25.37,0.0,0.0,0.0,0.0,0.0,0.0,0.0,100.0
25.35,0.0,0.0,0.0,0.0,0.0,0.0,0.0,100.0
25.35,0.0,0.0,0.0,0.0,0.0,0.0,0.0,100.0
25.37,0.0,0.0,0.0,0.0,0.0,0.0,0.0,100.0
25.37,0.0,0.0,0.0,0.0,0.0,0.0,0.0,100.0
25.41,0.0,0.0,0.0,0.0,0.0,0.0,0.0,100.0
25.29,0.0,0.0,0.0,0.0,0.0,0.0,0.0,100.0
25.29,0.0,0.0,0.0,0.0,0.0,0.0,101.0,100.0
25.25,0.0,0.0,0.0,0.0,0.0,0.0,222.0,100.0
26.21,0.0,0.0,0.0,0.0,0.0,0.0,0.0,100.0
26.09,0.0,0.0,0.0,0.0,0.0,0.0,0.0,100.0
26.11,0.0,0.0,0.0,0.0,0.0,0.0,0.0,100.0
26.05,0.0,0.0,0.0,0.0,0.0,0.0,0.0,100.0
26.09,0.0,0.0,0.0,0.0,0.0,0.0,0.0,100.0
26.15,0.0,0.0,0.0,0.0,0.0,0.0,0.0,100.0
26.17,0.0,0.0,0.0,0.0,0.0,0.0,0.0,100.0
26.11,0.0,0.0,0.0,0.0,0.0,0.0,0.0,100.0
26.23,0.0,0.0,0.0,0.0,0.0,0.0,0.0,100.0
26.09,0.0,0.0,0.0,0.0,0.0,0.0,0.0,100.0
26.09,0.0,0.0,0.0,0.0,0.0,0.0,0.0,100.0
26.21,0.0,0.0,0.0,0.0,0.0,0.0,0.0,100.0
26.11,0.0,0.0,0.0,0.0,0.0,0.0,0.0,100.0
26.09,0.0,0.0,0.0,0.0,0.0,0.0,0.0,100.0
26.15,0.0,0.0,0.0,0.0,0.0,0.0,0.0,100.0
26.15,0.0,0.0,0.0,0.0,0.0,0.0,0.0,100.0
26.23,0.0,0.0,0.0,0.0,0.0,0.0,0.0,100.0
26.17,0.0,0.0,0.0,0.0,0.0,32.0,0.0,100.0
26.17,0.0,0.0,0.0,0.0,0.0,0.0,0.0,100.0
26.21,0.0,0.0,0.0,0.0,0.0,0.0,0.0,100.0
26.17,0.0,0.0,0.0,0.0,0.0,0.0,0.0,100.0
25.99,0.0,0.0,0.0,0.0,0.0,0.0,0.0,100.0
25.97,0.0,0.0,0.0,0.0,0.0,0.0,0.0,100.0
25.97,0.0,0.0,0.0,0.0,0.0,0.0,0.0,100.0
25.93,0.0,0.0,0.0,0.0,0.0,0.0,0.0,100.0
25.93,0.0,0.0,0.0,0.0,0.0,0.0,0.0,100.0
25.93,0.0,0.0,0.0,0.0,0.0,0.0,0.0,100.0
25.91,0.0,0.0,0.0,0.0,0.0,0.0,0.0,100.0
25.93,0.0,0.0,0.0,0.0,0.0,0.0,0.0,100.0
25.93,0.0,0.0,0.0,0.0,0.0,0.0,0.0,100.0
25.97,0.0,0.0,0.0,0.0,0.0,0.0,0.0,100.0
25.91,0.0,0.0,0.0,0.0,0.0,0.0,0.0,100.0
25.87,0.0,0.0,0.0,0.0,0.0,0.0,0.0,100.0
25.91,0.0,0.0,0.0,0.0,0.0,0.0,0.0,100.0
25.87,0.0,0.0,0.0,0.0,0.0,0.0,0.0,100.0
25.87,0.0,0.0,0.0,0.0,12.0,0.0,0.0,100.0
25.91,0.0,0.0,0.0,0.0,0.0,0.0,0.0,100.0
25.91,0.0,0.0,0.0,0.0,0.0,0.0,0.0,100.0
25.99,0.0,0.0,0.0,0.0,0.0,0.0,0.0,100.0
26.03,0.0,0.0,0.0,0.0,0.0,0.0,0.0,100.0
26.03,0.0,0.0,0.0,0.0,0.0,0.0,0.0,100.0
25.99,0.0,0.0,0.0,0.0,0.0,0.0,0.0,100.0
26.03,0.0,0.0,0.0,0.0,0.0,0.0,0.0,100.0
26.09,0.0,0.0,0.0,0.0,0.0,0.0,0.0,100.0
26.11,0.0,0.0,0.0,0.0,0.0,0.0,0.0,100.0
26.05,0.0,0.0,0.0,0.0,0.0,0.0,0.0,100.0
26.15,0.0,0.0,0.0,0.0,0.0,0.0,0.0,15.0
25.99,0.0,0.0,0.0,0.0,0.0,0.0,0.0,15.0
25.75,0.0,0.0,0.0,0.0,0.0,0.0,0.0,15.0
25.85,0.0,0.0,0.0,0.0,0.0,0.0,0.0,15.0
25.87,0.0,0.0,0.0,0.0,0.0,0.0,0.0,15.0
26.11,0.0,0.0,0.0,0.0,0.0,0.0,0.0,15.0
26.93,0.0,0.0,0.0,0.0,0.0,0.0,0.0,15.0
29.05,0.0,0.0,0.0,0.0,0.0,0.0,0.0,15.0
30.77,0.0,0.0,0.0,0.0,0.0,0.0,0.0,15.0
32.03,0.0,0.0,0.0,0.0,0.0,0.0,0.0,15.0
32.81,0.0,0.0,0.0,0.0,0.0,0.0,0.0,15.0
33.41,0.0,0.0,0.0,0.0,0.0,0.0,0.0,15.0
34.59,0.0,0.0,0.0,0.0,0.0,0.0,0.0,15.0
34.97,0.0,0.0,0.0,0.0,0.0,0.0,0.0,15.0
36.61,0.0,0.0,0.0,0.0,0.0,0.0,0.0,15.0
38.95,0.0,0.0,0.0,0.0,0.0,0.0,0.0,15.0
39.33,0.0,0.0,32.0,0.0,0.0,0.0,0.0,15.0
39.77,0.0,0.0,0.0,0.0,0.0,0.0,0.0,15.0
39.63,0.0,0.0,0.0,0.0,0.0,0.0,0.0,15.0
39.09,0.0,0.0,0.0,0.0,0.0,0.0,0.0,15.0
39.09,0.0,0.0,0.0,0.0,0.0,0.0,0.0,15.0
39.39,0.0,0.0,0.0,0.0,0.0,0.0,0.0,15.0
39.41,0.0,0.0,0.0,0.0,0.0,0.0,0.0,15.0
39.45,0.0,0.0,0.0,0.0,0.0,0.0,0.0,15.0
39.29,0.0,0.0,0.0,0.0,0.0,0.0,0.0,15.0
39.49,0.0,0.0,0.0,0.0,0.0,0.0,0.0,15.0
39.55,0.0,0.0,0.0,0.0,0.0,0.0,0.0,15.0
38.95,0.0,0.0,0.0,0.0,0.0,0.0,0.0,15.0
38.67,0.0,0.0,0.0,0.0,0.0,0.0,0.0,15.0
38.51,0.0,0.0,0.0,0.0,0.0,0.0,0.0,15.0
38.13,0.0,0.0,0.0,0.0,0.0,0.0,0.0,15.0
38.19,0.0,0.0,0.0,0.0,0.0,0.0,0.0,15.0
38.09,0.0,0.0,0.0,0.0,0.0,0.0,0.0,15.0
37.83,0.0,0.0,0.0,0.0,0.0,0.0,0.0,15.0
37.61,0.0,0.0,0.0,0.0,0.0,0.0,0.0,15.0
37.75,0.0,0.0,0.0,0.0,0.0,0.0,0.0,15.0
38.33,0.0,0.0,0.0,0.0,0.0,0.0,0.0,15.0
38.63,0.0,0.0,0.0,0.0,0.0,0.0,0.0,15.0
39.03,0.0,0.0,0.0,0.0,0.0,0.0,0.0,15.0
38.85,0.0,0.0,0.0,0.0,0.0,0.0,0.0,15.0
40.85,0.0,0.0,0.0,0.0,0.0,0.0,0.0,15.0
38.97,0.0,0.0,0.0,0.0,0.0,0.0,0.0,15.0
39.31,0.0,0.0,0.0,0.0,0.0,0.0,0.0,15.0
40.89,0.0,0.0,0.0,0.0,0.0,0.0,0.0,15.0
40.29,0.0,0.0,0.0,0.0,0.0,0.0,0.0,15.0
40.63,0.0,0.0,0.0,0.0,0.0,0.0,0.0,15.0
41.37,0.0,0.0,0.0,0.0,0.0,0.0,0.0,15.0
40.97,0.0,0.0,0.0,0.0,0.0,0.0,0.0,15.0
41.67,0.0,0.0,0.0,0.0,0.0,0.0,0.0,15.0
42.03,0.0,0.0,0.0,0.0,0.0,0.0,0.0,15.0
42.11,144.0,0.0,0.0,0.0,0.0,0.0,0.0,15.0
42.11,0.0,0.0,0.0,0.0,0.0,0.0,0.0,15.0
41.91,0.0,0.0,0.0,0.0,0.0,0.0,0.0,24.0
41.81,0.0,0.0,0.0,0.0,0.0,0.0,0.0,34.0
41.67,0.0,0.0,0.0,0.0,0.0,0.0,0.0,47.0
41.45,0.0,0.0,0.0,0.0,0.0,0.0,0.0,58.0
41.35,0.0,0.0,0.0,0.0,0.0,0.0,682.0,68.0
41.19,0.0,567.0,0.0,0.0,542.0,0.0,2408.0,79.0
41.09,0.0,597.0,0.0,0.0,542.0,0.0,2536.0,90.0
41.21,0.0,665.0,0.0,0.0,578.0,0.0,2602.0,100.0
41.17,0.0,671.0,0.0,0.0,590.0,0.0,2619.0,100.0
41.19,0.0,685.0,0.0,0.0,594.0,0.0,2641.0,100.0
41.17,0.0,679.0,0.0,0.0,611.0,0.0,2653.0,100.0
41.15,0.0,677.0,0.0,0.0,613.0,0.0,2666.0,100.0
41.09,0.0,681.0,0.0,0.0,614.0,0.0,2680.0,100.0
41.01,0.0,0.0,0.0,0.0,32.0,0.0,1777.0,100.0
41.03,0.0,0.0,0.0,0.0,0.0,0.0,676.0,100.0
41.09,0.0,0.0,0.0,0.0,0.0,0.0,463.0,100.0
41.09,0.0,0.0,0.0,0.0,0.0,0.0,692.0,100.0
41.21,0.0,0.0,0.0,0.0,206.0,0.0,824.0,100.0
41.29,0.0,0.0,0.0,0.0,256.0,0.0,838.0,100.0
41.37,0.0,0.0,0.0,0.0,261.0,0.0,856.0,100.0
41.45,0.0,0.0,0.0,0.0,279.0,0.0,874.0,100.0
41.49,0.0,0.0,0.0,0.0,283.0,0.0,881.0,100.0
41.39,0.0,0.0,0.0,0.0,294.0,0.0,878.0,100.0
41.43,0.0,0.0,0.0,0.0,294.0,0.0,896.0,100.0
41.39,0.0,0.0,0.0,0.0,295.0,0.0,893.0,100.0
41.39,0.0,0.0,0.0,0.0,318.0,0.0,891.0,100.0
41.29,0.0,0.0,0.0,0.0,256.0,0.0,915.0,100.0
41.31,0.0,0.0,0.0,0.0,181.0,0.0,906.0,100.0
41.25,0.0,0.0,0.0,0.0,100.0,0.0,912.0,100.0
41.27,0.0,0.0,0.0,0.0,0.0,0.0,1019.0,100.0
41.31,0.0,0.0,0.0,0.0,83.0,0.0,944.0,100.0
41.37,0.0,0.0,0.0,0.0,0.0,0.0,1059.0,100.0
41.35,0.0,0.0,0.0,0.0,0.0,0.0,1116.0,100.0
41.29,0.0,0.0,0.0,0.0,0.0,0.0,1177.0,100.0
41.29,0.0,0.0,0.0,0.0,0.0,0.0,1206.0,100.0
41.29,0.0,0.0,0.0,0.0,0.0,0.0,1194.0,100.0
41.31,192.0,0.0,0.0,0.0,0.0,0.0,1260.0,100.0
41.35,0.0,0.0,0.0,0.0,0.0,0.0,1295.0,100.0
41.37,0.0,0.0,0.0,0.0,0.0,0.0,1318.0,100.0
41.37,0.0,0.0,0.0,0.0,0.0,0.0,1327.0,100.0
41.29,0.0,0.0,0.0,0.0,0.0,0.0,1332.0,100.0
41.25,0.0,0.0,0.0,0.0,0.0,0.0,1368.0,100.0
41.21,0.0,0.0,0.0,0.0,0.0,0.0,1372.0,100.0
41.25,0.0,0.0,0.0,0.0,0.0,0.0,1390.0,100.0
41.17,0.0,0.0,0.0,0.0,0.0,0.0,1401.0,100.0
41.07,0.0,0.0,0.0,0.0,0.0,0.0,1402.0,100.0
41.07,0.0,0.0,0.0,0.0,0.0,0.0,1403.0,100.0
41.19,0.0,0.0,0.0,0.0,0.0,0.0,1412.0,100.0
41.27,0.0,0.0,0.0,0.0,0.0,0.0,1409.0,100.0
41.27,0.0,0.0,0.0,0.0,0.0,0.0,1412.0,100.0
41.29,0.0,0.0,0.0,0.0,0.0,0.0,1409.0,100.0
41.11,0.0,0.0,0.0,0.0,0.0,0.0,1401.0,100.0
41.09,0.0,0.0,0.0,0.0,0.0,0.0,1400.0,100.0
41.09,0.0,0.0,0.0,0.0,0.0,0.0,1406.0,100.0
40.93,0.0,0.0,0.0,0.0,0.0,0.0,1411.0,100.0
40.91,0.0,0.0,0.0,0.0,0.0,0.0,1418.0,100.0
40.85,0.0,0.0,0.0,0.0,0.0,0.0,1421.0,100.0
40.89,0.0,0.0,0.0,0.0,0.0,0.0,1430.0,100.0
41.07,0.0,0.0,0.0,0.0,0.0,0.0,1419.0,100.0
41.07,0.0,0.0,0.0,192.0,0.0,0.0,1423.0,100.0
41.11,0.0,0.0,0.0,0.0,0.0,0.0,1423.0,100.0
41.11,0.0,0.0,0.0,0.0,0.0,0.0,1427.0,100.0
41.09,0.0,0.0,0.0,0.0,0.0,0.0,1430.0,100.0
41.01,0.0,0.0,0.0,0.0,0.0,0.0,1432.0,100.0
40.85,0.0,0.0,0.0,0.0,0.0,0.0,1431.0,100.0
40.81,0.0,0.0,0.0,0.0,0.0,0.0,1429.0,100.0
40.81,0.0,0.0,0.0,0.0,0.0,0.0,1441.0,100.0
40.81,0.0,0.0,0.0,0.0,0.0,0.0,1440.0,100.0
40.93,0.0,0.0,0.0,0.0,0.0,0.0,1436.0,100.0
40.89,0.0,0.0,0.0,0.0,0.0,0.0,1437.0,100.0
40.93,0.0,0.0,0.0,0.0,0.0,0.0,1440.0,100.0
40.91,0.0,0.0,0.0,0.0,0.0,0.0,1437.0,100.0
40.89,0.0,0.0,0.0,0.0,0.0,0.0,1440.0,100.0
40.83,0.0,0.0,0.0,0.0,0.0,0.0,1441.0,100.0
40.83,0.0,0.0,0.0,0.0,0.0,0.0,1440.0,100.0
40.79,0.0,0.0,0.0,0.0,0.0,0.0,1439.0,100.0
40.71,0.0,0.0,0.0,0.0,0.0,0.0,1449.0,100.0
40.67,0.0,0.0,0.0,0.0,0.0,0.0,1444.0,100.0
40.57,0.0,0.0,0.0,0.0,0.0,0.0,1449.0,100.0
40.61,0.0,0.0,0.0,0.0,0.0,0.0,1448.0,100.0
40.55,0.0,0.0,0.0,0.0,0.0,0.0,1452.0,100.0
40.57,0.0,0.0,0.0,0.0,0.0,0.0,1461.0,100.0
40.61,0.0,0.0,0.0,0.0,0.0,0.0,1450.0,100.0
40.61,0.0,0.0,0.0,0.0,0.0,0.0,1459.0,100.0
40.61,0.0,0.0,0.0,0.0,0.0,0.0,1453.0,100.0
40.61,0.0,0.0,0.0,0.0,0.0,0.0,1454.0,100.0
40.75,0.0,0.0,0.0,0.0,0.0,0.0,1460.0,100.0
40.63,0.0,0.0,0.0,0.0,0.0,0.0,1459.0,100.0
40.63,0.0,0.0,0.0,0.0,0.0,0.0,1463.0,100.0
40.63,0.0,0.0,0.0,0.0,0.0,0.0,1465.0,100.0
40.55,0.0,0.0,0.0,0.0,0.0,0.0,1460.0,100.0
40.53,0.0,0.0,0.0,0.0,0.0,0.0,1457.0,15.0
40.71,0.0,0.0,0.0,0.0,0.0,0.0,363.0,15.0
40.39,0.0,0.0,0.0,0.0,0.0,0.0,0.0,15.0
26.93,0.0,0.0,0.0,0.0,0.0,0.0,0.0,15.0
26.93,0.0,0.0,0.0,0.0,0.0,0.0,0.0,15.0
26.93,0.0,0.0,0.0,0.0,0.0,0.0,0.0,15.0
26.85,0.0,0.0,0.0,0.0,0.0,0.0,0.0,15.0
26.93,0.0,0.0,0.0,0.0,0.0,0.0,0.0,15.0
26.91,0.0,0.0,0.0,0.0,0.0,0.0,0.0,15.0
26.87,0.0,0.0,0.0,56.0,0.0,0.0,0.0,15.0
26.87,0.0,0.0,0.0,0.0,0.0,0.0,0.0,15.0
26.87,0.0,0.0,0.0,0.0,0.0,0.0,0.0,15.0
26.85,0.0,0.0,0.0,0.0,0.0,0.0,0.0,15.0
26.83,0.0,0.0,0.0,0.0,0.0,0.0,0.0,15.0
26.43,0.0,0.0,0.0,0.0,0.0,0.0,0.0,15.0
26.35,0.0,0.0,0.0,0.0,0.0,0.0,0.0,15.0
26.31,0.0,0.0,0.0,0.0,0.0,0.0,0.0,15.0
26.31,0.0,0.0,0.0,0.0,0.0,0.0,0.0,15.0
26.41,0.0,0.0,0.0,0.0,0.0,0.0,0.0,15.0
26.65,0.0,0.0,0.0,0.0,0.0,0.0,0.0,15.0
26.73,0.0,0.0,0.0,0.0,0.0,0.0,0.0,15.0
26.37,0.0,0.0,0.0,0.0,0.0,0.0,0.0,15.0
26.35,0.0,0.0,0.0,0.0,0.0,0.0,0.0,15.0
26.35,0.0,0.0,0.0,0.0,0.0,0.0,0.0,15.0
26.41,0.0,0.0,0.0,0.0,0.0,0.0,0.0,15.0
26.29,0.0,0.0,0.0,0.0,0.0,0.0,0.0,15.0
26.35,0.0,0.0,0.0,0.0,0.0,0.0,0.0,15.0
27.15,0.0,0.0,0.0,0.0,0.0,0.0,0.0,15.0
26.79,0.0,0.0,0.0,0.0,0.0,0.0,0.0,15.0
27.09,0.0,0.0,0.0,0.0,0.0,0.0,0.0,15.0
26.73,0.0,0.0,0.0,0.0,0.0,0.0,0.0,15.0
26.61,0.0,0.0,0.0,0.0,0.0,0.0,0.0,15.0
26.41,0.0,0.0,0.0,0.0,0.0,0.0,0.0,15.0
26.41,0.0,0.0,0.0,0.0,0.0,0.0,0.0,15.0
26.35,0.0,0.0,0.0,0.0,0.0,0.0,0.0,15.0
26.35,0.0,0.0,0.0,0.0,0.0,0.0,0.0,15.0
26.29,0.0,0.0,0.0,0.0,0.0,0.0,0.0,15.0
26.23,0.0,0.0,0.0,0.0,0.0,0.0,0.0,15.0
26.27,0.0,0.0,0.0,0.0,0.0,0.0,0.0,15.0
26.21,0.0,0.0,0.0,0.0,0.0,0.0,0.0,15.0
26.21,0.0,0.0,0.0,0.0,0.0,0.0,0.0,15.0
26.17,0.0,0.0,0.0,0.0,0.0,0.0,0.0,15.0
26.21,0.0,0.0,0.0,0.0,0.0,0.0,0.0,15.0
26.27,0.0,0.0,0.0,0.0,0.0,0.0,0.0,15.0
26.17,0.0,0.0,0.0,128.0,0.0,0.0,0.0,15.0
26.15,0.0,0.0,0.0,0.0,0.0,0.0,0.0,15.0
26.23,0.0,0.0,0.0,0.0,0.0,0.0,0.0,15.0
26.43,0.0,0.0,0.0,0.0,0.0,0.0,0.0,15.0
27.11,0.0,0.0,0.0,0.0,0.0,0.0,0.0,15.0
27.31,0.0,0.0,0.0,0.0,0.0,0.0,0.0,15.0
27.41,0.0,0.0,0.0,0.0,0.0,0.0,0.0,15.0
27.09,0.0,0.0,0.0,0.0,0.0,0.0,0.0,15.0
27.11,0.0,0.0,0.0,0.0,0.0,0.0,0.0,15.0
26.97,0.0,0.0,0.0,0.0,0.0,0.0,0.0,15.0
27.23,0.0,0.0,0.0,0.0,0.0,0.0,0.0,25.0
27.11,0.0,0.0,0.0,0.0,0.0,0.0,0.0,34.0
27.09,0.0,0.0,0.0,0.0,0.0,0.0,0.0,43.0
26.99,0.0,0.0,0.0,0.0,0.0,0.0,0.0,53.0
27.15,0.0,0.0,0.0,0.0,0.0,0.0,0.0,63.0
27.11,0.0,0.0,0.0,0.0,0.0,0.0,0.0,73.0
27.11,0.0,0.0,0.0,0.0,0.0,0.0,771.0,82.0
27.09,0.0,374.0,0.0,0.0,0.0,0.0,2349.0,88.0
27.09,0.0,405.0,0.0,0.0,0.0,0.0,2425.0,90.0
27.09,0.0,384.0,0.0,0.0,0.0,0.0,2433.0,90.0
27.11,0.0,270.0,0.0,0.0,0.0,0.0,2185.0,90.0
26.97,0.0,272.0,0.0,0.0,0.0,0.0,2207.0,90.0
27.05,0.0,273.0,0.0,0.0,0.0,0.0,2211.0,90.0
27.03,0.0,272.0,0.0,0.0,0.0,0.0,2219.0,90.0
27.09,0.0,303.0,0.0,0.0,0.0,0.0,2223.0,90.0
27.03,0.0,256.0,0.0,0.0,0.0,0.0,2150.0,90.0
26.99,0.0,242.0,0.0,0.0,0.0,0.0,2144.0,90.0
26.99,0.0,256.0,0.0,0.0,0.0,0.0,2157.0,90.0
26.93,0.0,272.0,0.0,0.0,0.0,0.0,2154.0,90.0
26.97,0.0,253.0,0.0,0.0,0.0,0.0,2161.0,90.0
27.15,0.0,265.0,0.0,0.0,0.0,0.0,2168.0,90.0
27.17,0.0,263.0,0.0,0.0,0.0,0.0,2171.0,90.0
27.21,0.0,274.0,0.0,0.0,0.0,0.0,2179.0,90.0
27.15,0.0,269.0,0.0,0.0,0.0,0.0,2186.0,90.0
27.09,0.0,271.0,0.0,0.0,0.0,0.0,2189.0,90.0
27.03,0.0,279.0,0.0,0.0,0.0,0.0,2194.0,90.0
26.93,0.0,272.0,0.0,0.0,0.0,0.0,2199.0,90.0
26.99,0.0,272.0,0.0,0.0,0.0,0.0,2201.0,90.0
26.97,0.0,272.0,0.0,0.0,0.0,0.0,2205.0,90.0
26.93,0.0,260.0,0.0,0.0,0.0,0.0,2206.0,90.0
26.91,0.0,267.0,0.0,0.0,0.0,0.0,2222.0,90.0
26.93,0.0,264.0,0.0,0.0,0.0,0.0,2217.0,90.0
26.99,0.0,267.0,0.0,0.0,0.0,0.0,2218.0,90.0
26.99,0.0,255.0,0.0,0.0,0.0,0.0,2220.0,90.0
26.97,0.0,254.0,0.0,0.0,0.0,0.0,2228.0,90.0
26.93,0.0,247.0,0.0,0.0,0.0,0.0,2223.0,90.0
26.97,0.0,251.0,0.0,0.0,0.0,0.0,2222.0,90.0
26.91,0.0,251.0,0.0,0.0,0.0,0.0,2224.0,90.0
26.93,0.0,251.0,0.0,0.0,0.0,0.0,2229.0,90.0
26.97,0.0,257.0,0.0,0.0,0.0,0.0,2229.0,90.0
26.93,0.0,255.0,0.0,0.0,0.0,0.0,2229.0,90.0
26.91,0.0,258.0,0.0,0.0,0.0,0.0,2236.0,90.0
26.93,0.0,254.0,0.0,0.0,0.0,0.0,2240.0,90.0
26.91,0.0,347.0,0.0,0.0,0.0,0.0,2234.0,90.0
26.97,0.0,257.0,0.0,0.0,0.0,0.0,2233.0,90.0
26.93,0.0,253.0,0.0,0.0,0.0,0.0,2231.0,90.0
26.93,0.0,256.0,0.0,0.0,0.0,0.0,2239.0,90.0
26.91,0.0,266.0,0.0,0.0,0.0,0.0,2242.0,90.0
26.91,0.0,254.0,0.0,0.0,0.0,0.0,2245.0,90.0
26.91,0.0,251.0,0.0,0.0,0.0,0.0,2247.0,90.0
26.91,0.0,256.0,0.0,0.0,0.0,0.0,2246.0,90.0
26.87,0.0,266.0,0.0,0.0,0.0,0.0,2243.0,90.0
26.85,0.0,256.0,0.0,0.0,0.0,0.0,2242.0,90.0
26.91,0.0,257.0,0.0,0.0,0.0,0.0,2249.0,90.0
26.79,0.0,261.0,0.0,0.0,0.0,0.0,2256.0,90.0
26.87,0.0,247.0,0.0,0.0,0.0,0.0,2255.0,90.0
26.79,0.0,260.0,0.0,0.0,0.0,0.0,2251.0,90.0
26.73,0.0,0.0,0.0,0.0,0.0,0.0,2252.0,90.0
26.71,0.0,267.0,0.0,0.0,0.0,0.0,2255.0,90.0
26.71,0.0,259.0,0.0,0.0,0.0,0.0,2249.0,90.0
26.67,0.0,272.0,0.0,0.0,0.0,0.0,2250.0,90.0
26.61,0.0,267.0,0.0,0.0,0.0,0.0,2252.0,90.0
26.73,0.0,267.0,340.0,0.0,0.0,0.0,2260.0,90.0
26.73,0.0,262.0,0.0,0.0,0.0,0.0,2260.0,90.0
26.77,0.0,266.0,0.0,0.0,0.0,0.0,2258.0,90.0
26.67,0.0,265.0,0.0,0.0,0.0,0.0,2263.0,90.0
26.73,0.0,265.0,0.0,0.0,0.0,0.0,2258.0,90.0
26.71,0.0,269.0,0.0,0.0,0.0,0.0,2259.0,90.0
26.71,0.0,256.0,0.0,0.0,0.0,0.0,2263.0,90.0
26.61,0.0,270.0,0.0,0.0,0.0,0.0,2265.0,90.0
26.77,0.0,255.0,0.0,0.0,0.0,0.0,2263.0,90.0
26.65,0.0,275.0,0.0,0.0,0.0,0.0,2263.0,90.0
26.67,0.0,259.0,0.0,0.0,0.0,0.0,2262.0,90.0
26.61,0.0,272.0,0.0,0.0,0.0,0.0,2269.0,90.0
26.67,0.0,266.0,0.0,0.0,0.0,0.0,2273.0,90.0
26.77,0.0,272.0,0.0,0.0,0.0,0.0,2264.0,90.0
26.71,0.0,269.0,0.0,0.0,0.0,0.0,2267.0,90.0
26.71,0.0,240.0,0.0,0.0,0.0,0.0,2265.0,90.0
26.73,0.0,267.0,0.0,0.0,0.0,0.0,2265.0,90.0
26.61,0.0,262.0,0.0,0.0,0.0,0.0,2276.0,90.0
26.73,0.0,272.0,0.0,0.0,0.0,0.0,2267.0,90.0
26.71,0.0,272.0,0.0,0.0,0.0,0.0,2266.0,90.0
26.73,0.0,267.0,0.0,0.0,0.0,0.0,2258.0,90.0
26.71,0.0,258.0,0.0,0.0,0.0,0.0,2260.0,90.0
26.77,0.0,272.0,0.0,0.0,0.0,0.0,2264.0,90.0
26.79,0.0,267.0,0.0,0.0,0.0,0.0,2266.0,90.0
26.73,0.0,271.0,0.0,0.0,0.0,0.0,2269.0,90.0
26.79,0.0,269.0,0.0,0.0,0.0,0.0,2272.0,90.0
26.77,0.0,267.0,0.0,0.0,0.0,0.0,2258.0,90.0
26.77,0.0,271.0,0.0,0.0,0.0,0.0,2264.0,90.0
26.73,0.0,266.0,0.0,0.0,0.0,0.0,2261.0,90.0
26.71,0.0,274.0,0.0,0.0,0.0,0.0,2261.0,90.0
26.71,0.0,277.0,0.0,0.0,0.0,0.0,2128.0,15.0
26.61,0.0,0.0,0.0,0.0,0.0,0.0,0.0,15.0
25.93,0.0,0.0,0.0,0.0,0.0,0.0,0.0,15.0
25.93,0.0,0.0,0.0,0.0,0.0,0.0,0.0,15.0
25.81,0.0,0.0,0.0,0.0,0.0,0.0,0.0,15.0
26.21,0.0,0.0,0.0,0.0,0.0,0.0,0.0,15.0
27.05,0.0,0.0,0.0,0.0,0.0,0.0,0.0,15.0
26.77,0.0,0.0,0.0,0.0,0.0,0.0,0.0,15.0
26.79,0.0,0.0,0.0,0.0,0.0,0.0,0.0,15.0
26.85,0.0,0.0,0.0,0.0,0.0,0.0,0.0,15.0
26.83,0.0,0.0,0.0,0.0,0.0,0.0,0.0,15.0
25.87,0.0,0.0,0.0,0.0,0.0,0.0,0.0,15.0
25.93,0.0,0.0,0.0,0.0,0.0,0.0,0.0,15.0
25.91,0.0,0.0,0.0,0.0,0.0,0.0,0.0,15.0
25.91,0.0,0.0,0.0,0.0,0.0,0.0,0.0,15.0
25.91,0.0,0.0,0.0,0.0,0.0,0.0,0.0,15.0
25.87,0.0,0.0,0.0,0.0,0.0,0.0,0.0,15.0
25.91,0.0,0.0,0.0,0.0,0.0,0.0,0.0,15.0
25.87,0.0,0.0,0.0,0.0,0.0,0.0,0.0,15.0
25.85,0.0,0.0,0.0,0.0,0.0,0.0,0.0,15.0
25.91,0.0,0.0,0.0,0.0,0.0,0.0,0.0,15.0
