tempMLX,FSR_A1,FSR_A2,FSR_A3,FSR_B1,FSR_B2,FSR_B3,FSR_C,porcAper
0.0,0.0,0.0,0.0,0.0,0.0,0.0,0.0,15.0
0.0,0.0,0.0,0.0,0.0,0.0,0.0,0.0,15.0
25.49,0.0,0.0,0.0,0.0,0.0,0.0,0.0,15.0
25.49,0.0,0.0,0.0,0.0,0.0,0.0,0.0,15.0
25.41,0.0,0.0,0.0,0.0,0.0,0.0,0.0,15.0
25.41,0.0,0.0,0.0,0.0,0.0,0.0,0.0,15.0
25.47,0.0,0.0,0.0,0.0,0.0,0.0,0.0,15.0
25.41,0.0,0.0,0.0,0.0,0.0,0.0,0.0,15.0
25.43,0.0,0.0,0.0,0.0,0.0,0.0,0.0,15.0
25.41,0.0,0.0,0.0,0.0,0.0,0.0,0.0,15.0
25.41,0.0,0.0,0.0,0.0,0.0,0.0,0.0,15.0
25.43,0.0,0.0,0.0,0.0,0.0,0.0,0.0,15.0
25.35,0.0,0.0,0.0,0.0,170.0,0.0,0.0,15.0
25.43,0.0,0.0,0.0,0.0,0.0,0.0,0.0,15.0
25.41,0.0,0.0,0.0,0.0,0.0,0.0,0.0,15.0
25.41,0.0,0.0,0.0,0.0,0.0,0.0,0.0,15.0
25.43,0.0,0.0,0.0,0.0,0.0,0.0,0.0,15.0
25.43,0.0,0.0,0.0,0.0,0.0,0.0,0.0,15.0
25.43,0.0,0.0,0.0,0.0,0.0,0.0,0.0,15.0
25.47,0.0,0.0,0.0,0.0,0.0,0.0,0.0,15.0
25.47,0.0,0.0,0.0,0.0,0.0,0.0,0.0,15.0
25.43,0.0,0.0,0.0,0.0,0.0,0.0,0.0,15.0
25.41,0.0,0.0,0.0,0.0,0.0,0.0,0.0,15.0
25.41,0.0,0.0,0.0,0.0,0.0,0.0,0.0,15.0
25.49,0.0,0.0,0.0,0.0,0.0,0.0,0.0,15.0
25.41,0.0,0.0,0.0,0.0,0.0,0.0,0.0,15.0
25.41,0.0,0.0,0.0,0.0,0.0,0.0,0.0,15.0
25.43,0.0,0.0,0.0,0.0,0.0,0.0,0.0,15.0
25.37,0.0,0.0,0.0,0.0,0.0,0.0,0.0,15.0
25.31,0.0,0.0,0.0,0.0,0.0,0.0,0.0,15.0
25.25,0.0,0.0,0.0,0.0,0.0,0.0,0.0,15.0
25.37,0.0,0.0,0.0,0.0,0.0,0.0,0.0,15.0
25.35,0.0,0.0,0.0,0.0,0.0,0.0,0.0,15.0
25.35,0.0,0.0,0.0,0.0,0.0,0.0,0.0,15.0
25.31,0.0,0.0,0.0,0.0,0.0,0.0,0.0,15.0
25.19,0.0,0.0,0.0,0.0,0.0,0.0,0.0,15.0
25.29,0.0,0.0,0.0,0.0,0.0,0.0,0.0,15.0
25.37,0.0,0.0,0.0,0.0,0.0,0.0,0.0,15.0
25.37,0.0,0.0,0.0,0.0,0.0,0.0,0.0,15.0
25.41,0.0,0.0,0.0,0.0,0.0,0.0,0.0,15.0
25.47,0.0,0.0,0.0,0.0,0.0,0.0,0.0,15.0
25.53,0.0,0.0,0.0,0.0,0.0,0.0,0.0,15.0
25.47,0.0,0.0,0.0,0.0,0.0,0.0,0.0,15.0
25.55,0.0,0.0,0.0,0.0,0.0,0.0,0.0,15.0
25.55,0.0,0.0,0.0,0.0,0.0,0.0,0.0,15.0
25.43,0.0,0.0,0.0,0.0,0.0,0.0,0.0,15.0
25.47,0.0,0.0,0.0,0.0,0.0,288.0,0.0,15.0
25.47,0.0,0.0,0.0,0.0,0.0,0.0,0.0,15.0
25.43,0.0,0.0,0.0,0.0,0.0,0.0,0.0,15.0
25.49,0.0,0.0,0.0,0.0,0.0,0.0,0.0,15.0
25.55,0.0,0.0,0.0,0.0,0.0,0.0,0.0,15.0
25.49,0.0,0.0,0.0,0.0,0.0,0.0,0.0,15.0
25.47,0.0,0.0,0.0,0.0,0.0,0.0,0.0,15.0
25.49,0.0,0.0,0.0,0.0,0.0,0.0,0.0,15.0
25.49,0.0,0.0,0.0,0.0,0.0,0.0,0.0,15.0
25.53,0.0,0.0,0.0,0.0,0.0,0.0,0.0,15.0
25.53,0.0,0.0,0.0,0.0,0.0,0.0,0.0,15.0
25.55,0.0,0.0,0.0,0.0,0.0,0.0,0.0,15.0
25.53,0.0,0.0,0.0,0.0,0.0,0.0,0.0,15.0
25.53,0.0,0.0,0.0,0.0,0.0,0.0,0.0,15.0
25.53,0.0,0.0,0.0,0.0,0.0,0.0,0.0,15.0
25.59,0.0,0.0,0.0,0.0,0.0,0.0,0.0,15.0
25.55,0.0,0.0,0.0,0.0,0.0,0.0,0.0,15.0
25.55,0.0,0.0,0.0,0.0,0.0,0.0,0.0,15.0
25.49,0.0,0.0,0.0,0.0,0.0,0.0,0.0,15.0
25.59,0.0,0.0,0.0,0.0,0.0,0.0,0.0,15.0
25.55,0.0,0.0,0.0,0.0,0.0,0.0,0.0,15.0
25.55,0.0,0.0,0.0,0.0,0.0,0.0,0.0,15.0
25.53,0.0,0.0,0.0,0.0,0.0,0.0,0.0,15.0
25.47,0.0,0.0,0.0,0.0,0.0,0.0,0.0,15.0
25.43,0.0,0.0,0.0,0.0,0.0,0.0,0.0,15.0
25.53,0.0,0.0,0.0,0.0,0.0,0.0,0.0,15.0
25.59,0.0,0.0,0.0,0.0,0.0,0.0,0.0,15.0
25.55,0.0,0.0,0.0,0.0,0.0,0.0,0.0,15.0
25.55,0.0,0.0,0.0,0.0,0.0,0.0,0.0,15.0
25.53,0.0,0.0,0.0,0.0,0.0,0.0,0.0,15.0
25.55,0.0,0.0,0.0,0.0,0.0,0.0,0.0,15.0
25.69,0.0,0.0,0.0,0.0,0.0,0.0,0.0,15.0
25.61,0.0,0.0,0.0,0.0,0.0,0.0,0.0,15.0
25.63,0.0,0.0,0.0,0.0,0.0,0.0,0.0,15.0
25.59,0.0,0.0,0.0,0.0,0.0,0.0,0.0,15.0
25.55,0.0,0.0,0.0,0.0,0.0,0.0,0.0,15.0
25.55,0.0,0.0,0.0,0.0,0.0,0.0,0.0,15.0
25.55,0.0,0.0,0.0,0.0,0.0,0.0,0.0,15.0
25.59,0.0,0.0,0.0,0.0,0.0,0.0,0.0,15.0
25.53,0.0,0.0,0.0,0.0,0.0,0.0,0.0,15.0
25.53,0.0,0.0,0.0,0.0,0.0,0.0,0.0,15.0
25.59,0.0,0.0,0.0,0.0,0.0,0.0,0.0,15.0
25.55,0.0,0.0,0.0,0.0,0.0,0.0,0.0,15.0
25.61,0.0,0.0,0.0,0.0,0.0,0.0,0.0,15.0
25.55,0.0,0.0,0.0,0.0,0.0,0.0,0.0,15.0
25.63,0.0,0.0,0.0,0.0,0.0,0.0,0.0,15.0
25.53,0.0,0.0,0.0,0.0,0.0,0.0,0.0,15.0
25.55,0.0,0.0,0.0,0.0,0.0,0.0,0.0,15.0
25.61,0.0,0.0,0.0,0.0,0.0,0.0,0.0,15.0
25.41,0.0,0.0,0.0,0.0,0.0,0.0,0.0,15.0
25.41,0.0,0.0,0.0,0.0,0.0,0.0,0.0,15.0
25.43,0.0,0.0,0.0,0.0,0.0,0.0,0.0,15.0
25.47,0.0,0.0,0.0,0.0,0.0,0.0,0.0,15.0
25.47,0.0,0.0,0.0,0.0,0.0,0.0,0.0,15.0
25.41,0.0,0.0,0.0,0.0,0.0,0.0,0.0,15.0
25.43,0.0,0.0,0.0,0.0,0.0,0.0,0.0,15.0
25.47,0.0,0.0,0.0,0.0,0.0,0.0,0.0,15.0
25.59,0.0,0.0,0.0,0.0,0.0,0.0,0.0,15.0
25.53,0.0,0.0,0.0,0.0,0.0,0.0,0.0,15.0
25.53,0.0,0.0,0.0,0.0,0.0,0.0,0.0,15.0
25.53,0.0,0.0,0.0,0.0,0.0,0.0,0.0,15.0
25.53,0.0,0.0,0.0,0.0,0.0,0.0,0.0,15.0
25.47,0.0,0.0,0.0,0.0,0.0,0.0,0.0,15.0
25.47,0.0,0.0,0.0,0.0,0.0,0.0,0.0,15.0
25.47,0.0,0.0,0.0,0.0,0.0,0.0,0.0,15.0
25.47,0.0,0.0,0.0,0.0,0.0,0.0,0.0,15.0
25.43,0.0,0.0,0.0,0.0,0.0,0.0,0.0,15.0
25.47,0.0,0.0,0.0,0.0,0.0,0.0,0.0,15.0
25.49,0.0,0.0,0.0,0.0,0.0,0.0,0.0,15.0
25.41,0.0,0.0,0.0,0.0,0.0,0.0,0.0,15.0
25.47,0.0,0.0,0.0,0.0,0.0,0.0,0.0,15.0
25.47,0.0,0.0,0.0,0.0,0.0,0.0,0.0,15.0
25.47,0.0,192.0,0.0,0.0,0.0,0.0,0.0,15.0
25.47,0.0,0.0,0.0,0.0,0.0,0.0,0.0,15.0
25.49,0.0,0.0,0.0,0.0,0.0,0.0,0.0,15.0
25.37,0.0,0.0,0.0,0.0,0.0,0.0,0.0,15.0
25.47,0.0,0.0,0.0,0.0,0.0,0.0,0.0,15.0
25.47,0.0,0.0,0.0,0.0,0.0,0.0,0.0,15.0
25.47,0.0,0.0,0.0,0.0,0.0,0.0,0.0,15.0
25.61,0.0,0.0,0.0,0.0,0.0,0.0,0.0,15.0
25.63,0.0,0.0,0.0,0.0,0.0,0.0,0.0,15.0
25.67,0.0,0.0,0.0,0.0,0.0,0.0,0.0,15.0
25.59,0.0,0.0,0.0,0.0,0.0,0.0,0.0,15.0
25.59,0.0,0.0,0.0,0.0,0.0,0.0,0.0,15.0
25.59,0.0,0.0,0.0,0.0,0.0,0.0,0.0,15.0
25.61,0.0,0.0,0.0,0.0,0.0,0.0,0.0,15.0
25.69,0.0,0.0,0.0,0.0,0.0,0.0,0.0,15.0
25.69,0.0,0.0,0.0,0.0,0.0,0.0,0.0,15.0
25.59,0.0,0.0,0.0,0.0,0.0,0.0,0.0,18.0
25.55,0.0,0.0,0.0,0.0,0.0,0.0,0.0,20.0
25.63,0.0,0.0,0.0,0.0,0.0,0.0,0.0,20.0
25.55,0.0,0.0,0.0,0.0,0.0,0.0,0.0,20.0
25.53,0.0,0.0,0.0,0.0,0.0,0.0,0.0,20.0
25.47,0.0,0.0,0.0,0.0,0.0,0.0,0.0,20.0
25.53,0.0,0.0,0.0,0.0,0.0,0.0,0.0,20.0
25.55,0.0,0.0,0.0,0.0,0.0,0.0,0.0,20.0
25.59,0.0,0.0,0.0,0.0,0.0,0.0,0.0,20.0
25.75,0.0,0.0,0.0,0.0,0.0,0.0,0.0,20.0
25.81,0.0,0.0,0.0,0.0,0.0,0.0,0.0,20.0
25.81,0.0,0.0,0.0,0.0,0.0,0.0,0.0,20.0
25.87,0.0,0.0,0.0,0.0,0.0,0.0,0.0,20.0
25.99,0.0,0.0,0.0,0.0,0.0,0.0,0.0,20.0
25.93,0.0,0.0,0.0,0.0,0.0,0.0,0.0,23.0
25.93,0.0,0.0,0.0,0.0,0.0,0.0,0.0,25.0
25.91,0.0,0.0,0.0,0.0,0.0,0.0,0.0,33.0
25.99,0.0,0.0,0.0,0.0,0.0,0.0,0.0,43.0
25.91,0.0,0.0,0.0,0.0,0.0,0.0,0.0,53.0
25.91,0.0,0.0,0.0,0.0,0.0,0.0,0.0,62.0
25.87,0.0,0.0,0.0,0.0,0.0,0.0,0.0,71.0
25.85,0.0,0.0,0.0,0.0,0.0,0.0,0.0,82.0
25.81,0.0,0.0,0.0,0.0,0.0,0.0,3.0,91.0
25.81,0.0,0.0,0.0,0.0,0.0,0.0,62.0,100.0
25.85,0.0,0.0,0.0,0.0,0.0,0.0,71.0,100.0
25.81,0.0,0.0,0.0,0.0,0.0,0.0,76.0,100.0
25.85,0.0,0.0,0.0,0.0,0.0,0.0,70.0,100.0
25.79,0.0,0.0,0.0,0.0,0.0,0.0,78.0,100.0
25.87,0.0,0.0,0.0,0.0,0.0,0.0,75.0,100.0
25.79,0.0,0.0,0.0,0.0,0.0,0.0,72.0,100.0
25.85,0.0,0.0,0.0,0.0,0.0,0.0,70.0,100.0
25.79,0.0,0.0,0.0,0.0,0.0,0.0,74.0,100.0
25.91,0.0,0.0,0.0,0.0,0.0,0.0,78.0,100.0
25.87,0.0,0.0,0.0,0.0,0.0,0.0,78.0,100.0
26.11,0.0,0.0,0.0,0.0,0.0,0.0,78.0,100.0
26.03,0.0,0.0,0.0,0.0,0.0,0.0,78.0,100.0
26.03,0.0,0.0,0.0,0.0,0.0,0.0,79.0,100.0
25.93,0.0,0.0,0.0,0.0,0.0,0.0,86.0,100.0
25.91,0.0,0.0,0.0,0.0,0.0,0.0,84.0,100.0
25.93,0.0,0.0,0.0,0.0,0.0,0.0,83.0,100.0
25.99,0.0,0.0,0.0,0.0,0.0,0.0,84.0,100.0
25.97,0.0,0.0,0.0,0.0,0.0,0.0,84.0,100.0
25.91,0.0,0.0,0.0,0.0,0.0,0.0,83.0,100.0
25.81,0.0,0.0,0.0,0.0,0.0,0.0,82.0,100.0
25.79,0.0,0.0,0.0,0.0,0.0,0.0,85.0,100.0
25.81,0.0,0.0,0.0,0.0,0.0,0.0,87.0,100.0
25.79,0.0,0.0,0.0,0.0,0.0,0.0,75.0,100.0
25.73,0.0,0.0,0.0,0.0,0.0,0.0,76.0,100.0
25.73,0.0,0.0,0.0,0.0,0.0,0.0,75.0,100.0
25.75,0.0,0.0,0.0,0.0,0.0,0.0,74.0,100.0
25.85,0.0,0.0,0.0,0.0,0.0,0.0,85.0,100.0
25.81,0.0,0.0,0.0,0.0,0.0,0.0,82.0,100.0
25.85,0.0,0.0,0.0,0.0,0.0,0.0,84.0,100.0
25.85,0.0,0.0,0.0,0.0,0.0,0.0,82.0,100.0
25.87,0.0,0.0,0.0,0.0,0.0,0.0,86.0,100.0
25.81,0.0,0.0,0.0,0.0,0.0,0.0,87.0,100.0
25.69,0.0,0.0,0.0,0.0,0.0,0.0,87.0,100.0
25.73,0.0,0.0,0.0,0.0,0.0,0.0,81.0,100.0
25.69,0.0,0.0,0.0,0.0,0.0,0.0,86.0,100.0
25.75,0.0,0.0,0.0,0.0,0.0,0.0,89.0,100.0
25.73,0.0,0.0,0.0,0.0,0.0,0.0,90.0,100.0
25.67,0.0,0.0,0.0,0.0,0.0,0.0,88.0,100.0
25.69,0.0,0.0,0.0,0.0,0.0,0.0,90.0,100.0
25.69,0.0,0.0,0.0,0.0,0.0,0.0,88.0,100.0
25.73,0.0,0.0,0.0,0.0,0.0,0.0,86.0,100.0
25.79,0.0,0.0,0.0,0.0,0.0,0.0,89.0,100.0
25.81,0.0,0.0,0.0,0.0,0.0,0.0,90.0,100.0
25.87,0.0,0.0,0.0,0.0,0.0,0.0,92.0,100.0
25.81,0.0,0.0,0.0,0.0,0.0,0.0,93.0,100.0
25.85,0.0,0.0,0.0,0.0,0.0,0.0,95.0,100.0
25.85,0.0,0.0,0.0,0.0,0.0,0.0,99.0,100.0
25.79,0.0,0.0,0.0,0.0,0.0,0.0,98.0,100.0
25.85,0.0,0.0,0.0,0.0,0.0,0.0,90.0,100.0
25.75,0.0,0.0,0.0,0.0,0.0,0.0,93.0,100.0
25.81,0.0,0.0,0.0,0.0,0.0,0.0,98.0,100.0
25.79,0.0,0.0,0.0,0.0,0.0,0.0,91.0,100.0
25.85,0.0,0.0,0.0,0.0,0.0,0.0,93.0,100.0
25.79,0.0,0.0,0.0,0.0,0.0,0.0,88.0,100.0
25.85,0.0,0.0,0.0,0.0,0.0,0.0,92.0,100.0
25.81,0.0,0.0,0.0,0.0,0.0,0.0,96.0,100.0
25.87,0.0,0.0,0.0,0.0,0.0,0.0,92.0,100.0
25.81,0.0,0.0,0.0,0.0,0.0,0.0,95.0,100.0
25.79,0.0,0.0,0.0,0.0,0.0,0.0,87.0,100.0
25.81,0.0,0.0,0.0,0.0,0.0,0.0,91.0,100.0
25.81,0.0,0.0,0.0,0.0,0.0,0.0,90.0,100.0
25.81,0.0,0.0,0.0,0.0,0.0,0.0,87.0,100.0
25.75,0.0,0.0,0.0,0.0,0.0,0.0,94.0,100.0
25.79,0.0,0.0,0.0,0.0,0.0,0.0,92.0,100.0
25.79,0.0,0.0,0.0,0.0,0.0,0.0,85.0,100.0
25.69,0.0,0.0,0.0,0.0,0.0,0.0,91.0,100.0
25.75,0.0,0.0,0.0,0.0,0.0,0.0,91.0,100.0
25.79,0.0,0.0,0.0,0.0,0.0,0.0,93.0,100.0
25.75,0.0,0.0,0.0,0.0,0.0,0.0,87.0,100.0
25.75,0.0,0.0,0.0,0.0,0.0,0.0,92.0,100.0
25.73,0.0,0.0,0.0,0.0,0.0,0.0,94.0,100.0
25.73,0.0,0.0,0.0,0.0,0.0,0.0,87.0,100.0
25.75,0.0,0.0,0.0,0.0,0.0,0.0,88.0,100.0
25.79,0.0,0.0,0.0,0.0,0.0,0.0,88.0,100.0
25.79,0.0,0.0,0.0,0.0,0.0,0.0,92.0,100.0
25.75,0.0,0.0,0.0,0.0,0.0,0.0,89.0,100.0
25.69,0.0,0.0,0.0,0.0,0.0,0.0,90.0,100.0
25.75,0.0,0.0,0.0,0.0,0.0,0.0,86.0,100.0
25.75,0.0,0.0,0.0,0.0,0.0,0.0,89.0,100.0
25.67,0.0,0.0,0.0,0.0,0.0,0.0,89.0,100.0
25.73,0.0,0.0,0.0,0.0,0.0,0.0,87.0,15.0
25.93,0.0,0.0,0.0,0.0,0.0,0.0,0.0,15.0
26.21,0.0,0.0,0.0,0.0,0.0,0.0,0.0,15.0
26.47,0.0,0.0,0.0,0.0,0.0,0.0,0.0,15.0
26.55,0.0,0.0,0.0,0.0,0.0,0.0,0.0,15.0
26.09,0.0,0.0,0.0,0.0,0.0,0.0,0.0,15.0
26.15,0.0,0.0,0.0,0.0,0.0,0.0,0.0,15.0
26.29,0.0,0.0,0.0,0.0,0.0,0.0,0.0,15.0
25.93,0.0,0.0,0.0,0.0,0.0,0.0,0.0,15.0
25.91,0.0,0.0,0.0,0.0,0.0,0.0,0.0,15.0
25.91,0.0,0.0,0.0,0.0,0.0,0.0,0.0,15.0
25.91,0.0,0.0,0.0,0.0,0.0,0.0,0.0,15.0
25.85,0.0,0.0,0.0,0.0,0.0,0.0,0.0,15.0
25.79,0.0,0.0,0.0,0.0,0.0,0.0,0.0,15.0
25.91,0.0,0.0,0.0,0.0,0.0,0.0,0.0,15.0
25.85,0.0,0.0,0.0,0.0,0.0,0.0,0.0,15.0
25.85,0.0,0.0,0.0,160.0,0.0,0.0,0.0,15.0
25.91,0.0,0.0,0.0,0.0,0.0,0.0,0.0,15.0
25.87,0.0,0.0,0.0,0.0,0.0,0.0,0.0,15.0
25.99,0.0,0.0,0.0,0.0,0.0,0.0,0.0,15.0
25.93,0.0,0.0,0.0,0.0,0.0,0.0,0.0,15.0
25.93,0.0,0.0,0.0,0.0,0.0,0.0,0.0,15.0
25.91,0.0,0.0,0.0,0.0,0.0,0.0,0.0,15.0
25.93,0.0,0.0,0.0,0.0,0.0,0.0,0.0,15.0
25.99,0.0,0.0,0.0,0.0,0.0,0.0,0.0,15.0
25.93,0.0,0.0,0.0,0.0,0.0,0.0,0.0,15.0
25.97,0.0,0.0,0.0,0.0,0.0,0.0,0.0,15.0
25.93,0.0,0.0,0.0,0.0,0.0,0.0,0.0,15.0
25.93,0.0,0.0,0.0,0.0,0.0,0.0,0.0,15.0
25.99,0.0,0.0,0.0,0.0,0.0,0.0,0.0,15.0
25.99,0.0,0.0,0.0,0.0,0.0,0.0,0.0,15.0
26.05,0.0,0.0,0.0,0.0,0.0,0.0,0.0,15.0
25.91,0.0,0.0,0.0,0.0,0.0,0.0,0.0,15.0
25.85,0.0,0.0,0.0,0.0,0.0,0.0,0.0,15.0
25.79,0.0,0.0,0.0,0.0,0.0,0.0,0.0,15.0
25.87,0.0,0.0,0.0,0.0,0.0,0.0,0.0,15.0
26.59,0.0,0.0,0.0,0.0,0.0,0.0,0.0,15.0
26.79,0.0,0.0,0.0,0.0,0.0,0.0,0.0,15.0
26.53,0.0,0.0,0.0,0.0,0.0,0.0,0.0,15.0
26.59,0.0,0.0,0.0,0.0,0.0,0.0,0.0,15.0
26.59,0.0,0.0,0.0,0.0,0.0,0.0,0.0,15.0
26.55,0.0,0.0,0.0,0.0,0.0,0.0,0.0,15.0
26.53,0.0,0.0,0.0,0.0,0.0,0.0,0.0,15.0
26.53,0.0,0.0,0.0,0.0,0.0,0.0,0.0,15.0
26.49,0.0,0.0,0.0,0.0,0.0,0.0,1.0,15.0
26.53,0.0,0.0,0.0,0.0,0.0,0.0,0.0,15.0
26.41,0.0,0.0,0.0,0.0,0.0,0.0,0.0,15.0
26.47,0.0,0.0,0.0,0.0,0.0,0.0,0.0,15.0
26.41,0.0,0.0,0.0,0.0,0.0,0.0,0.0,15.0
26.53,0.0,0.0,0.0,0.0,0.0,0.0,0.0,15.0
26.49,0.0,0.0,0.0,0.0,0.0,0.0,0.0,15.0
26.49,0.0,0.0,0.0,0.0,0.0,0.0,0.0,15.0
26.49,0.0,0.0,0.0,0.0,0.0,0.0,0.0,15.0
26.53,0.0,0.0,0.0,0.0,0.0,0.0,0.0,15.0
26.59,0.0,0.0,0.0,0.0,0.0,0.0,0.0,15.0
26.53,0.0,0.0,0.0,0.0,0.0,0.0,0.0,20.0
26.55,0.0,0.0,0.0,0.0,0.0,0.0,0.0,29.0
26.37,0.0,0.0,0.0,0.0,0.0,0.0,0.0,38.0
26.31,0.0,0.0,0.0,0.0,0.0,0.0,0.0,47.0
26.37,0.0,0.0,0.0,0.0,0.0,0.0,0.0,57.0
26.31,0.0,0.0,0.0,0.0,0.0,0.0,0.0,67.0
26.49,0.0,0.0,0.0,0.0,0.0,0.0,0.0,77.0
26.53,0.0,0.0,0.0,0.0,0.0,0.0,0.0,87.0
26.37,0.0,0.0,0.0,0.0,0.0,0.0,292.0,97.0
26.41,0.0,0.0,0.0,0.0,0.0,0.0,672.0,100.0
26.43,0.0,0.0,0.0,0.0,0.0,0.0,711.0,100.0
26.37,0.0,0.0,0.0,0.0,0.0,0.0,715.0,100.0
26.41,0.0,0.0,0.0,0.0,0.0,0.0,731.0,100.0
26.41,0.0,0.0,0.0,0.0,137.0,0.0,737.0,100.0
26.41,0.0,0.0,0.0,0.0,0.0,0.0,742.0,100.0
26.43,0.0,0.0,0.0,0.0,0.0,0.0,744.0,100.0
26.41,0.0,112.0,0.0,0.0,0.0,0.0,746.0,100.0
26.43,0.0,0.0,0.0,0.0,0.0,0.0,741.0,100.0
26.41,0.0,0.0,0.0,0.0,0.0,0.0,751.0,100.0
26.41,0.0,0.0,0.0,0.0,0.0,0.0,744.0,100.0
26.37,0.0,0.0,0.0,0.0,0.0,0.0,748.0,100.0
26.37,0.0,0.0,0.0,0.0,0.0,0.0,749.0,100.0
26.47,0.0,0.0,0.0,0.0,0.0,0.0,732.0,100.0
26.37,0.0,0.0,0.0,0.0,0.0,0.0,738.0,100.0
26.41,0.0,0.0,0.0,0.0,0.0,0.0,738.0,100.0
26.47,0.0,0.0,0.0,0.0,0.0,0.0,755.0,100.0
26.49,0.0,0.0,0.0,0.0,0.0,0.0,770.0,100.0
26.53,0.0,0.0,0.0,0.0,0.0,0.0,772.0,100.0
26.47,0.0,0.0,0.0,0.0,0.0,0.0,770.0,100.0
26.47,0.0,0.0,0.0,0.0,0.0,0.0,779.0,100.0
26.47,0.0,0.0,0.0,0.0,0.0,0.0,781.0,100.0
26.37,0.0,0.0,0.0,0.0,0.0,0.0,787.0,100.0
26.47,0.0,0.0,0.0,0.0,0.0,0.0,788.0,100.0
26.41,0.0,0.0,0.0,0.0,0.0,0.0,795.0,100.0
26.41,0.0,0.0,0.0,0.0,0.0,0.0,786.0,100.0
26.43,0.0,0.0,0.0,0.0,0.0,0.0,784.0,100.0
26.37,0.0,0.0,0.0,0.0,0.0,0.0,773.0,100.0
26.31,0.0,0.0,0.0,0.0,0.0,0.0,779.0,100.0
26.41,0.0,0.0,0.0,0.0,0.0,0.0,778.0,100.0
26.43,0.0,0.0,0.0,0.0,0.0,0.0,780.0,100.0
26.37,128.0,0.0,0.0,0.0,0.0,0.0,785.0,100.0
26.37,0.0,0.0,0.0,0.0,0.0,0.0,774.0,100.0
26.41,0.0,0.0,0.0,0.0,0.0,0.0,789.0,100.0
26.43,0.0,0.0,0.0,0.0,0.0,0.0,785.0,100.0
26.43,0.0,0.0,0.0,0.0,0.0,0.0,780.0,100.0
26.35,0.0,0.0,0.0,0.0,0.0,0.0,776.0,100.0
26.43,0.0,0.0,0.0,0.0,0.0,0.0,783.0,100.0
26.43,0.0,5.0,0.0,0.0,0.0,0.0,786.0,100.0
26.47,0.0,0.0,0.0,0.0,0.0,0.0,795.0,100.0
26.43,0.0,0.0,0.0,0.0,0.0,0.0,790.0,100.0
26.43,0.0,0.0,0.0,0.0,0.0,0.0,789.0,100.0
26.43,0.0,0.0,0.0,0.0,0.0,0.0,787.0,100.0
26.47,0.0,7.0,0.0,0.0,0.0,0.0,795.0,100.0
26.37,0.0,7.0,0.0,0.0,0.0,0.0,789.0,100.0
26.47,0.0,2.0,0.0,0.0,0.0,0.0,796.0,100.0
26.43,0.0,0.0,0.0,0.0,0.0,0.0,792.0,100.0
26.47,0.0,2.0,0.0,0.0,0.0,0.0,807.0,100.0
26.41,0.0,0.0,0.0,0.0,0.0,0.0,824.0,100.0
26.41,0.0,0.0,0.0,0.0,0.0,0.0,816.0,100.0
26.47,0.0,0.0,0.0,0.0,0.0,0.0,845.0,100.0
26.49,0.0,0.0,0.0,0.0,0.0,0.0,831.0,100.0
26.49,0.0,0.0,0.0,0.0,0.0,0.0,829.0,100.0
26.47,0.0,0.0,0.0,0.0,0.0,0.0,821.0,100.0
26.47,0.0,0.0,0.0,0.0,0.0,0.0,823.0,100.0
26.47,0.0,0.0,0.0,0.0,0.0,0.0,826.0,100.0
26.49,0.0,0.0,0.0,0.0,0.0,0.0,825.0,100.0
26.47,0.0,0.0,0.0,0.0,0.0,0.0,829.0,100.0
26.55,0.0,0.0,0.0,0.0,0.0,0.0,831.0,100.0
26.53,0.0,0.0,0.0,0.0,0.0,0.0,828.0,100.0
26.47,0.0,0.0,0.0,0.0,0.0,0.0,832.0,100.0
26.49,0.0,0.0,0.0,0.0,0.0,0.0,827.0,100.0
26.41,0.0,0.0,0.0,0.0,0.0,0.0,830.0,100.0
26.47,0.0,0.0,0.0,0.0,0.0,0.0,828.0,100.0
26.47,0.0,0.0,0.0,0.0,0.0,0.0,831.0,100.0
26.49,0.0,0.0,0.0,0.0,0.0,0.0,823.0,100.0
26.47,0.0,0.0,0.0,0.0,0.0,0.0,823.0,100.0
26.43,0.0,0.0,0.0,0.0,0.0,0.0,827.0,100.0
26.43,0.0,0.0,0.0,0.0,0.0,0.0,821.0,100.0
26.49,0.0,0.0,0.0,0.0,0.0,0.0,818.0,100.0
26.49,0.0,1.0,0.0,0.0,0.0,0.0,828.0,100.0
26.43,0.0,0.0,0.0,0.0,0.0,0.0,825.0,100.0
26.49,0.0,0.0,0.0,0.0,0.0,0.0,824.0,100.0
26.43,0.0,0.0,0.0,0.0,0.0,0.0,827.0,100.0
26.43,0.0,0.0,0.0,0.0,0.0,0.0,828.0,100.0
26.41,0.0,0.0,0.0,0.0,0.0,0.0,824.0,100.0
26.43,0.0,0.0,0.0,0.0,0.0,0.0,818.0,100.0
26.37,0.0,0.0,0.0,0.0,0.0,0.0,820.0,100.0
26.53,0.0,0.0,0.0,0.0,0.0,0.0,824.0,100.0
26.47,0.0,0.0,0.0,0.0,0.0,0.0,828.0,100.0
26.47,0.0,0.0,0.0,0.0,0.0,0.0,827.0,100.0
26.49,0.0,0.0,0.0,0.0,0.0,0.0,0.0,15.0
26.15,0.0,0.0,0.0,0.0,0.0,0.0,0.0,15.0
25.75,0.0,0.0,0.0,0.0,0.0,0.0,0.0,15.0
25.73,0.0,0.0,0.0,0.0,0.0,0.0,0.0,15.0
26.11,0.0,0.0,0.0,0.0,0.0,0.0,0.0,15.0
25.93,0.0,0.0,0.0,0.0,0.0,0.0,0.0,15.0
25.99,0.0,0.0,0.0,0.0,0.0,0.0,0.0,15.0
25.67,0.0,0.0,0.0,0.0,0.0,0.0,0.0,15.0
25.67,0.0,0.0,0.0,0.0,0.0,0.0,0.0,15.0
25.67,0.0,0.0,0.0,0.0,0.0,0.0,0.0,15.0
25.69,0.0,0.0,0.0,0.0,0.0,0.0,0.0,15.0
25.69,0.0,0.0,0.0,0.0,0.0,0.0,0.0,15.0
25.67,0.0,0.0,0.0,0.0,0.0,0.0,0.0,15.0
25.69,0.0,0.0,0.0,0.0,0.0,0.0,0.0,15.0
25.67,0.0,0.0,0.0,0.0,0.0,0.0,0.0,15.0
25.73,0.0,0.0,0.0,0.0,0.0,0.0,0.0,15.0
25.73,0.0,0.0,0.0,0.0,0.0,0.0,0.0,15.0
25.73,0.0,0.0,0.0,0.0,0.0,0.0,0.0,15.0
26.03,0.0,0.0,0.0,0.0,0.0,0.0,0.0,15.0
26.17,0.0,0.0,0.0,0.0,0.0,0.0,0.0,15.0
26.17,0.0,0.0,0.0,0.0,0.0,0.0,0.0,15.0
26.23,0.0,0.0,0.0,0.0,0.0,0.0,0.0,15.0
26.29,0.0,0.0,0.0,0.0,0.0,0.0,0.0,15.0
26.29,0.0,0.0,0.0,0.0,0.0,0.0,0.0,15.0
26.37,0.0,0.0,0.0,0.0,0.0,0.0,0.0,15.0
26.43,0.0,0.0,0.0,0.0,0.0,0.0,0.0,15.0
26.41,0.0,0.0,0.0,0.0,0.0,0.0,0.0,15.0
26.49,0.0,0.0,0.0,0.0,0.0,0.0,0.0,15.0
26.43,0.0,0.0,0.0,0.0,0.0,0.0,0.0,15.0
26.53,0.0,0.0,0.0,0.0,0.0,0.0,0.0,15.0
26.49,0.0,0.0,0.0,0.0,0.0,0.0,0.0,15.0
26.47,0.0,0.0,0.0,0.0,0.0,0.0,0.0,15.0
26.49,0.0,0.0,0.0,0.0,0.0,0.0,0.0,15.0
26.49,0.0,0.0,0.0,0.0,0.0,0.0,0.0,15.0
26.49,0.0,0.0,0.0,0.0,0.0,0.0,0.0,15.0
26.55,0.0,0.0,0.0,0.0,0.0,0.0,0.0,15.0
26.49,0.0,0.0,0.0,0.0,0.0,0.0,0.0,15.0
26.53,0.0,0.0,0.0,0.0,0.0,0.0,0.0,15.0
26.47,0.0,0.0,0.0,0.0,0.0,0.0,0.0,15.0
26.53,0.0,0.0,0.0,0.0,0.0,0.0,0.0,15.0
26.55,0.0,0.0,0.0,0.0,0.0,0.0,0.0,15.0
26.37,0.0,0.0,0.0,0.0,0.0,0.0,0.0,15.0
26.29,0.0,0.0,0.0,0.0,0.0,0.0,0.0,15.0
26.11,0.0,0.0,0.0,0.0,0.0,0.0,0.0,15.0
26.41,0.0,0.0,0.0,0.0,0.0,0.0,0.0,15.0
27.17,0.0,0.0,0.0,0.0,0.0,0.0,0.0,15.0
27.61,0.0,0.0,0.0,0.0,0.0,0.0,0.0,15.0
29.03,0.0,0.0,0.0,0.0,0.0,0.0,0.0,15.0
32.71,0.0,0.0,0.0,0.0,0.0,0.0,0.0,15.0
35.09,0.0,0.0,0.0,0.0,0.0,0.0,0.0,15.0
35.37,0.0,0.0,0.0,0.0,0.0,0.0,0.0,15.0
35.85,0.0,0.0,0.0,0.0,0.0,0.0,0.0,18.0
35.67,0.0,0.0,0.0,0.0,0.0,0.0,0.0,28.0
34.81,0.0,0.0,0.0,0.0,0.0,0.0,0.0,37.0
35.83,0.0,0.0,0.0,0.0,0.0,0.0,0.0,47.0
36.37,0.0,0.0,0.0,0.0,0.0,0.0,0.0,56.0
36.79,0.0,0.0,0.0,0.0,0.0,0.0,154.0,67.0
36.57,0.0,555.0,0.0,0.0,163.0,0.0,2631.0,77.0
36.47,0.0,591.0,0.0,0.0,131.0,0.0,2708.0,86.0
36.49,0.0,613.0,0.0,0.0,144.0,0.0,2721.0,97.0
36.39,0.0,601.0,0.0,0.0,121.0,0.0,2752.0,100.0
36.37,0.0,608.0,0.0,0.0,128.0,0.0,2761.0,100.0
36.33,0.0,624.0,0.0,0.0,197.0,0.0,2784.0,100.0
36.33,0.0,609.0,0.0,0.0,112.0,0.0,2788.0,100.0
36.39,0.0,614.0,0.0,0.0,127.0,0.0,2798.0,100.0
36.45,0.0,623.0,0.0,0.0,120.0,0.0,2799.0,100.0
36.53,0.0,623.0,0.0,0.0,121.0,0.0,2796.0,100.0
36.53,0.0,557.0,0.0,0.0,64.0,0.0,2721.0,100.0
36.63,0.0,564.0,0.0,0.0,203.0,0.0,2709.0,100.0
36.61,0.0,590.0,0.0,0.0,109.0,0.0,2682.0,100.0
36.63,0.0,608.0,0.0,0.0,163.0,0.0,2636.0,100.0
36.65,0.0,624.0,0.0,0.0,188.0,0.0,2654.0,100.0
36.69,0.0,625.0,0.0,0.0,284.0,0.0,2671.0,100.0
36.73,0.0,647.0,0.0,0.0,304.0,0.0,2649.0,100.0
36.71,0.0,641.0,0.0,0.0,311.0,0.0,2677.0,100.0
36.73,0.0,621.0,0.0,0.0,320.0,68.0,2667.0,100.0
36.71,0.0,640.0,0.0,0.0,277.0,0.0,2691.0,100.0
36.77,0.0,640.0,0.0,0.0,288.0,0.0,2696.0,100.0
36.61,0.0,640.0,0.0,0.0,295.0,0.0,2709.0,100.0
36.63,0.0,657.0,0.0,0.0,302.0,0.0,2716.0,100.0
36.65,0.0,641.0,0.0,0.0,274.0,0.0,2700.0,100.0
36.63,0.0,651.0,0.0,0.0,247.0,0.0,2732.0,100.0
36.57,0.0,644.0,0.0,0.0,257.0,0.0,2713.0,100.0
36.57,0.0,652.0,0.0,0.0,176.0,0.0,2724.0,100.0
36.63,0.0,655.0,0.0,0.0,115.0,0.0,2748.0,100.0
36.63,0.0,620.0,0.0,0.0,95.0,0.0,2733.0,100.0
36.65,0.0,607.0,0.0,0.0,71.0,0.0,2763.0,100.0
36.57,0.0,542.0,0.0,0.0,80.0,0.0,2790.0,100.0
36.55,0.0,470.0,0.0,0.0,86.0,0.0,2850.0,100.0
36.49,0.0,486.0,0.0,0.0,112.0,0.0,2860.0,100.0
36.53,0.0,457.0,0.0,0.0,128.0,0.0,2849.0,100.0
36.53,0.0,375.0,0.0,0.0,137.0,0.0,2928.0,100.0
36.47,0.0,315.0,0.0,0.0,194.0,0.0,2956.0,100.0
36.47,0.0,208.0,0.0,0.0,194.0,0.0,2940.0,100.0
36.49,0.0,326.0,0.0,0.0,208.0,0.0,2938.0,100.0
36.53,0.0,320.0,0.0,0.0,199.0,0.0,2931.0,100.0
36.49,0.0,325.0,0.0,0.0,212.0,0.0,2921.0,100.0
36.53,0.0,316.0,0.0,0.0,216.0,0.0,2922.0,100.0
36.57,0.0,320.0,0.0,0.0,209.0,0.0,2925.0,100.0
36.57,0.0,339.0,0.0,0.0,154.0,0.0,2926.0,100.0
36.53,0.0,326.0,0.0,0.0,199.0,0.0,2890.0,100.0
36.55,0.0,324.0,0.0,0.0,202.0,0.0,2895.0,100.0
36.57,0.0,320.0,0.0,0.0,203.0,0.0,2896.0,100.0
36.55,0.0,331.0,0.0,0.0,208.0,0.0,2888.0,100.0
36.57,0.0,0.0,0.0,0.0,214.0,0.0,2886.0,100.0
36.61,0.0,429.0,0.0,0.0,211.0,0.0,2889.0,100.0
36.57,0.0,317.0,0.0,0.0,208.0,0.0,2880.0,100.0
36.63,0.0,317.0,0.0,0.0,211.0,0.0,2890.0,100.0
36.57,0.0,325.0,0.0,0.0,212.0,0.0,2882.0,100.0
36.53,0.0,321.0,0.0,0.0,193.0,0.0,2897.0,100.0
36.45,0.0,327.0,0.0,0.0,215.0,0.0,2897.0,100.0
36.31,0.0,325.0,0.0,0.0,224.0,0.0,2907.0,100.0
36.31,0.0,318.0,0.0,0.0,217.0,0.0,2905.0,100.0
36.31,0.0,321.0,0.0,0.0,218.0,0.0,2901.0,100.0
36.45,0.0,320.0,0.0,0.0,224.0,0.0,2904.0,100.0
36.41,0.0,328.0,0.0,0.0,222.0,0.0,2910.0,100.0
36.49,0.0,322.0,0.0,0.0,225.0,0.0,2922.0,100.0
36.49,0.0,325.0,0.0,0.0,218.0,0.0,2915.0,100.0
36.47,0.0,332.0,0.0,0.0,219.0,0.0,2911.0,100.0
36.49,0.0,326.0,0.0,0.0,238.0,0.0,2914.0,100.0
36.55,0.0,311.0,0.0,0.0,223.0,0.0,2924.0,100.0
36.57,0.0,317.0,0.0,0.0,221.0,0.0,2920.0,100.0
36.55,0.0,336.0,0.0,0.0,223.0,0.0,2919.0,100.0
36.61,0.0,329.0,0.0,0.0,222.0,0.0,2928.0,100.0
36.47,0.0,328.0,0.0,0.0,225.0,0.0,2915.0,100.0
36.41,0.0,182.0,0.0,0.0,229.0,0.0,2919.0,100.0
36.41,0.0,334.0,0.0,0.0,223.0,0.0,2914.0,100.0
36.33,0.0,326.0,0.0,0.0,221.0,0.0,2921.0,100.0
36.33,0.0,330.0,0.0,0.0,218.0,0.0,2921.0,100.0
36.25,0.0,331.0,0.0,0.0,244.0,0.0,2926.0,100.0
36.25,0.0,281.0,0.0,0.0,223.0,0.0,2924.0,100.0
36.31,0.0,336.0,0.0,0.0,229.0,0.0,2926.0,100.0
36.31,0.0,331.0,0.0,0.0,221.0,0.0,2935.0,100.0
36.33,0.0,340.0,0.0,0.0,233.0,48.0,2930.0,100.0
36.31,0.0,326.0,0.0,0.0,225.0,0.0,2934.0,100.0
36.39,0.0,329.0,0.0,0.0,226.0,0.0,2927.0,100.0
36.41,0.0,330.0,0.0,0.0,235.0,0.0,2926.0,100.0
36.33,0.0,331.0,0.0,0.0,228.0,0.0,2928.0,100.0
36.41,0.0,399.0,0.0,0.0,211.0,0.0,2931.0,100.0
36.33,0.0,330.0,0.0,0.0,227.0,0.0,2928.0,100.0
36.37,0.0,335.0,0.0,0.0,224.0,0.0,2926.0,100.0
36.31,0.0,331.0,0.0,0.0,215.0,0.0,2931.0,100.0
36.33,0.0,327.0,0.0,0.0,235.0,0.0,2935.0,100.0
36.25,0.0,250.0,0.0,0.0,228.0,0.0,2936.0,100.0
36.33,0.0,345.0,0.0,0.0,225.0,0.0,2934.0,100.0
36.45,0.0,329.0,0.0,0.0,225.0,0.0,2925.0,100.0
36.41,0.0,0.0,0.0,0.0,0.0,0.0,208.0,15.0
35.43,0.0,0.0,0.0,0.0,0.0,0.0,0.0,15.0
26.37,0.0,0.0,0.0,0.0,0.0,0.0,0.0,15.0
26.29,0.0,0.0,0.0,0.0,0.0,0.0,0.0,15.0
26.67,0.0,0.0,0.0,0.0,0.0,0.0,0.0,15.0
26.41,0.0,0.0,0.0,0.0,0.0,0.0,0.0,15.0
26.41,0.0,0.0,0.0,0.0,0.0,0.0,0.0,15.0
26.37,0.0,0.0,0.0,0.0,0.0,0.0,0.0,15.0
26.29,0.0,0.0,0.0,0.0,0.0,0.0,0.0,15.0
25.87,0.0,0.0,0.0,0.0,0.0,0.0,0.0,15.0
25.85,0.0,0.0,0.0,0.0,0.0,0.0,0.0,15.0
25.87,0.0,0.0,0.0,0.0,0.0,0.0,0.0,15.0
25.85,0.0,0.0,0.0,0.0,0.0,0.0,0.0,15.0
25.85,0.0,0.0,0.0,0.0,0.0,0.0,0.0,15.0
25.87,0.0,0.0,0.0,0.0,0.0,0.0,0.0,15.0
25.87,0.0,0.0,0.0,0.0,0.0,0.0,0.0,15.0
25.97,0.0,0.0,0.0,0.0,0.0,0.0,0.0,15.0
26.23,0.0,0.0,0.0,0.0,0.0,0.0,0.0,15.0
26.17,0.0,0.0,0.0,0.0,0.0,0.0,0.0,15.0
25.81,0.0,0.0,0.0,0.0,0.0,0.0,0.0,15.0
25.75,0.0,0.0,0.0,0.0,0.0,0.0,0.0,15.0
25.91,0.0,0.0,0.0,0.0,0.0,0.0,0.0,15.0
25.81,0.0,0.0,0.0,0.0,0.0,0.0,0.0,15.0
25.73,0.0,0.0,0.0,0.0,0.0,0.0,0.0,15.0
25.93,0.0,0.0,0.0,0.0,0.0,0.0,0.0,15.0
26.03,0.0,0.0,0.0,0.0,0.0,0.0,0.0,15.0
26.15,0.0,0.0,0.0,0.0,0.0,0.0,0.0,15.0
26.17,0.0,0.0,0.0,0.0,0.0,0.0,0.0,15.0
26.17,0.0,0.0,0.0,0.0,0.0,0.0,0.0,15.0
26.15,0.0,0.0,0.0,0.0,0.0,0.0,0.0,15.0
26.21,0.0,0.0,0.0,0.0,0.0,0.0,0.0,15.0
26.21,0.0,0.0,0.0,0.0,0.0,0.0,0.0,15.0
26.21,0.0,0.0,0.0,0.0,0.0,0.0,0.0,15.0
26.35,0.0,0.0,0.0,0.0,0.0,0.0,0.0,15.0
26.43,0.0,0.0,0.0,0.0,0.0,0.0,0.0,15.0
26.35,0.0,0.0,0.0,0.0,0.0,0.0,0.0,15.0
26.21,0.0,0.0,0.0,0.0,0.0,0.0,0.0,15.0
26.31,0.0,0.0,0.0,0.0,0.0,0.0,0.0,15.0
26.21,0.0,0.0,0.0,0.0,0.0,0.0,0.0,15.0
26.29,0.0,0.0,0.0,0.0,0.0,0.0,0.0,15.0
26.29,0.0,0.0,0.0,0.0,0.0,0.0,0.0,15.0
26.17,0.0,0.0,0.0,0.0,0.0,0.0,0.0,15.0
26.17,0.0,0.0,0.0,0.0,0.0,0.0,0.0,15.0
26.11,0.0,0.0,0.0,0.0,0.0,0.0,0.0,15.0
26.21,0.0,0.0,0.0,0.0,0.0,0.0,0.0,15.0
26.17,0.0,0.0,0.0,0.0,0.0,0.0,0.0,15.0
26.05,0.0,0.0,0.0,0.0,0.0,0.0,0.0,15.0
26.11,0.0,0.0,0.0,0.0,0.0,0.0,2.0,15.0
25.91,0.0,0.0,0.0,0.0,0.0,0.0,0.0,15.0
25.99,0.0,0.0,0.0,0.0,0.0,0.0,0.0,15.0
25.93,0.0,0.0,0.0,0.0,0.0,0.0,0.0,15.0
26.03,0.0,0.0,0.0,0.0,0.0,0.0,0.0,23.0
25.91,0.0,0.0,0.0,0.0,0.0,0.0,0.0,34.0
25.99,0.0,0.0,0.0,0.0,0.0,0.0,0.0,43.0
26.05,0.0,0.0,0.0,0.0,0.0,0.0,0.0,53.0
26.11,0.0,0.0,0.0,0.0,0.0,0.0,0.0,63.0
26.15,0.0,0.0,0.0,0.0,0.0,0.0,0.0,74.0
26.03,0.0,0.0,0.0,0.0,0.0,0.0,0.0,84.0
25.97,0.0,0.0,0.0,0.0,0.0,0.0,14.0,94.0
25.93,0.0,0.0,0.0,0.0,0.0,0.0,224.0,100.0
26.03,0.0,0.0,0.0,0.0,0.0,0.0,261.0,100.0
25.99,0.0,0.0,0.0,0.0,0.0,0.0,293.0,100.0
26.03,0.0,0.0,0.0,0.0,0.0,0.0,290.0,100.0
26.09,0.0,0.0,0.0,0.0,0.0,0.0,292.0,100.0
25.99,0.0,0.0,0.0,0.0,0.0,0.0,285.0,100.0
25.97,0.0,0.0,0.0,0.0,0.0,0.0,260.0,100.0
25.99,0.0,0.0,0.0,0.0,0.0,0.0,251.0,100.0
26.03,0.0,0.0,0.0,0.0,0.0,0.0,257.0,100.0
25.99,0.0,0.0,0.0,0.0,0.0,0.0,255.0,100.0
25.97,0.0,0.0,0.0,0.0,0.0,0.0,251.0,100.0
25.97,0.0,0.0,0.0,0.0,0.0,0.0,259.0,100.0
26.03,0.0,0.0,0.0,0.0,0.0,0.0,260.0,100.0
25.99,0.0,0.0,0.0,0.0,0.0,0.0,273.0,100.0
25.93,0.0,0.0,0.0,0.0,0.0,0.0,269.0,100.0
25.97,0.0,0.0,0.0,0.0,0.0,0.0,274.0,100.0
25.97,0.0,0.0,16.0,0.0,0.0,0.0,289.0,100.0
26.05,0.0,0.0,26.0,0.0,0.0,0.0,276.0,100.0
26.05,0.0,0.0,0.0,0.0,0.0,0.0,285.0,100.0
26.05,0.0,0.0,74.0,0.0,0.0,0.0,285.0,100.0
26.09,0.0,0.0,82.0,0.0,0.0,0.0,297.0,100.0
25.97,0.0,0.0,105.0,0.0,0.0,0.0,300.0,100.0
25.99,0.0,0.0,111.0,0.0,0.0,0.0,311.0,100.0
26.03,0.0,0.0,127.0,0.0,0.0,0.0,319.0,100.0
26.03,0.0,0.0,0.0,0.0,0.0,0.0,313.0,100.0
25.99,0.0,0.0,146.0,0.0,0.0,0.0,298.0,100.0
25.97,0.0,0.0,161.0,0.0,0.0,0.0,314.0,100.0
25.97,0.0,0.0,174.0,0.0,0.0,3.0,306.0,100.0
25.99,0.0,0.0,181.0,0.0,0.0,10.0,318.0,100.0
26.03,0.0,0.0,186.0,0.0,0.0,11.0,310.0,100.0
25.99,0.0,0.0,197.0,0.0,0.0,13.0,321.0,100.0
25.97,0.0,0.0,199.0,0.0,0.0,7.0,328.0,100.0
26.03,0.0,0.0,206.0,0.0,0.0,16.0,324.0,100.0
26.03,0.0,0.0,211.0,0.0,0.0,0.0,325.0,100.0
26.03,0.0,0.0,226.0,0.0,0.0,15.0,330.0,100.0
25.97,0.0,0.0,224.0,0.0,0.0,13.0,332.0,100.0
26.03,0.0,0.0,230.0,0.0,0.0,19.0,333.0,100.0
25.99,0.0,0.0,226.0,0.0,0.0,21.0,329.0,100.0
26.03,0.0,0.0,239.0,0.0,0.0,17.0,338.0,100.0
25.99,0.0,0.0,219.0,0.0,0.0,20.0,332.0,100.0
25.99,0.0,0.0,242.0,0.0,0.0,18.0,331.0,100.0
25.99,0.0,0.0,222.0,0.0,0.0,28.0,326.0,100.0
25.99,0.0,0.0,245.0,0.0,0.0,21.0,331.0,100.0
26.05,0.0,0.0,256.0,0.0,0.0,27.0,335.0,100.0
25.99,0.0,0.0,257.0,0.0,0.0,17.0,340.0,100.0
25.97,0.0,0.0,211.0,0.0,0.0,16.0,341.0,100.0
25.93,0.0,0.0,247.0,0.0,0.0,18.0,337.0,100.0
25.97,0.0,0.0,256.0,0.0,0.0,26.0,329.0,100.0
26.05,0.0,0.0,257.0,0.0,0.0,30.0,337.0,100.0
26.03,0.0,0.0,257.0,0.0,0.0,36.0,318.0,100.0
26.03,0.0,0.0,269.0,0.0,0.0,48.0,329.0,100.0
26.05,0.0,0.0,261.0,0.0,0.0,35.0,330.0,100.0
26.05,0.0,0.0,261.0,0.0,0.0,36.0,324.0,100.0
26.09,0.0,0.0,272.0,0.0,0.0,48.0,339.0,100.0
26.11,0.0,0.0,267.0,0.0,0.0,48.0,347.0,100.0
26.09,0.0,0.0,260.0,0.0,0.0,42.0,355.0,100.0
26.05,0.0,0.0,269.0,0.0,0.0,64.0,340.0,100.0
26.11,0.0,0.0,273.0,0.0,0.0,49.0,338.0,100.0
26.03,0.0,0.0,273.0,0.0,0.0,48.0,341.0,100.0
26.09,0.0,0.0,272.0,0.0,0.0,52.0,340.0,100.0
26.05,0.0,0.0,271.0,0.0,0.0,50.0,338.0,100.0
25.99,0.0,0.0,271.0,0.0,0.0,48.0,341.0,100.0
26.09,0.0,0.0,271.0,0.0,0.0,51.0,350.0,100.0
26.05,0.0,0.0,278.0,0.0,0.0,32.0,349.0,100.0
26.03,0.0,0.0,270.0,0.0,0.0,57.0,344.0,100.0
26.03,0.0,0.0,277.0,0.0,0.0,61.0,346.0,100.0
26.03,0.0,0.0,276.0,0.0,0.0,41.0,345.0,100.0
25.99,0.0,0.0,277.0,0.0,0.0,54.0,340.0,100.0
26.05,0.0,0.0,256.0,0.0,0.0,63.0,348.0,100.0
25.97,0.0,0.0,283.0,0.0,0.0,64.0,341.0,100.0
26.05,0.0,0.0,283.0,0.0,0.0,66.0,345.0,100.0
26.05,0.0,0.0,294.0,0.0,0.0,72.0,345.0,100.0
25.99,0.0,0.0,301.0,0.0,0.0,69.0,341.0,100.0
26.05,0.0,0.0,274.0,0.0,0.0,68.0,346.0,100.0
26.05,0.0,0.0,269.0,0.0,0.0,54.0,335.0,100.0
26.03,0.0,0.0,293.0,0.0,0.0,78.0,337.0,100.0
26.03,0.0,0.0,287.0,0.0,0.0,70.0,333.0,100.0
25.97,0.0,0.0,286.0,0.0,0.0,68.0,337.0,100.0
26.03,0.0,0.0,294.0,0.0,0.0,80.0,332.0,100.0
26.05,0.0,0.0,278.0,0.0,0.0,74.0,330.0,100.0
25.99,0.0,0.0,273.0,0.0,0.0,204.0,333.0,100.0
25.97,0.0,0.0,294.0,0.0,0.0,71.0,335.0,100.0
25.99,0.0,0.0,291.0,0.0,0.0,76.0,338.0,100.0
26.03,0.0,0.0,282.0,0.0,0.0,80.0,332.0,100.0
26.03,0.0,0.0,290.0,0.0,0.0,81.0,342.0,100.0
25.97,0.0,0.0,288.0,0.0,0.0,87.0,334.0,100.0
25.97,0.0,0.0,36.0,0.0,0.0,0.0,2.0,15.0
26.15,0.0,0.0,34.0,0.0,0.0,0.0,0.0,15.0
26.03,0.0,0.0,0.0,0.0,0.0,0.0,0.0,15.0
25.69,0.0,0.0,0.0,0.0,0.0,0.0,0.0,15.0
25.69,0.0,0.0,0.0,0.0,0.0,0.0,0.0,15.0
25.67,0.0,0.0,0.0,0.0,0.0,0.0,0.0,15.0
25.81,0.0,0.0,0.0,0.0,0.0,0.0,0.0,15.0
25.85,0.0,0.0,0.0,0.0,0.0,0.0,0.0,15.0
25.87,0.0,0.0,0.0,0.0,0.0,0.0,0.0,15.0
25.75,0.0,0.0,0.0,0.0,0.0,0.0,0.0,15.0
25.75,0.0,0.0,0.0,0.0,0.0,0.0,0.0,15.0
25.75,0.0,0.0,0.0,0.0,0.0,0.0,0.0,15.0
25.85,0.0,0.0,0.0,0.0,0.0,0.0,0.0,15.0
25.81,0.0,0.0,0.0,0.0,0.0,0.0,0.0,15.0
25.81,0.0,0.0,0.0,0.0,0.0,0.0,0.0,15.0
25.73,0.0,0.0,0.0,0.0,0.0,0.0,0.0,15.0
25.79,0.0,0.0,0.0,0.0,0.0,0.0,0.0,15.0
25.73,0.0,0.0,0.0,0.0,0.0,0.0,0.0,15.0
25.81,0.0,0.0,0.0,0.0,0.0,0.0,0.0,15.0
25.75,0.0,0.0,0.0,0.0,0.0,0.0,0.0,15.0
25.75,0.0,0.0,0.0,0.0,0.0,0.0,0.0,15.0
25.73,0.0,0.0,0.0,0.0,0.0,0.0,0.0,15.0
25.79,0.0,0.0,0.0,0.0,0.0,0.0,0.0,15.0
25.81,0.0,0.0,0.0,0.0,0.0,0.0,0.0,15.0
25.75,0.0,0.0,0.0,0.0,0.0,0.0,0.0,15.0
25.75,0.0,0.0,0.0,0.0,0.0,0.0,0.0,15.0
25.73,0.0,0.0,0.0,0.0,0.0,0.0,0.0,15.0
25.69,0.0,0.0,0.0,0.0,0.0,0.0,0.0,15.0
25.69,0.0,0.0,0.0,0.0,0.0,0.0,0.0,15.0
25.73,0.0,0.0,0.0,0.0,0.0,0.0,0.0,15.0
25.87,0.0,0.0,0.0,0.0,0.0,0.0,0.0,15.0
25.69,0.0,0.0,0.0,0.0,0.0,0.0,0.0,15.0
25.73,0.0,0.0,0.0,0.0,0.0,0.0,0.0,15.0
25.73,0.0,0.0,0.0,0.0,0.0,0.0,0.0,15.0
25.73,0.0,0.0,0.0,0.0,0.0,0.0,0.0,15.0
25.75,0.0,0.0,0.0,0.0,0.0,0.0,0.0,15.0
25.81,0.0,0.0,0.0,0.0,0.0,0.0,0.0,15.0
25.81,0.0,0.0,0.0,0.0,0.0,0.0,0.0,15.0
25.73,0.0,0.0,0.0,0.0,0.0,0.0,0.0,15.0
25.63,0.0,0.0,0.0,0.0,0.0,0.0,0.0,15.0
25.49,0.0,0.0,0.0,0.0,0.0,0.0,0.0,15.0
25.47,0.0,0.0,0.0,0.0,0.0,0.0,0.0,15.0
25.17,0.0,0.0,0.0,0.0,0.0,0.0,0.0,15.0
25.17,0.0,0.0,0.0,0.0,0.0,0.0,0.0,15.0
25.13,0.0,0.0,0.0,0.0,0.0,0.0,0.0,15.0
25.01,0.0,0.0,0.0,0.0,0.0,0.0,0.0,15.0
24.93,0.0,0.0,0.0,0.0,0.0,0.0,0.0,15.0
24.81,0.0,0.0,0.0,0.0,0.0,0.0,0.0,15.0
24.77,0.0,0.0,0.0,0.0,0.0,0.0,0.0,15.0
24.89,0.0,0.0,0.0,0.0,0.0,0.0,0.0,20.0
24.89,0.0,0.0,0.0,0.0,0.0,0.0,0.0,30.0
24.95,0.0,0.0,0.0,0.0,0.0,0.0,0.0,40.0
25.05,0.0,0.0,0.0,0.0,0.0,0.0,0.0,49.0
25.07,0.0,0.0,0.0,0.0,0.0,0.0,0.0,59.0
25.07,0.0,0.0,0.0,0.0,0.0,0.0,0.0,68.0
25.07,0.0,0.0,0.0,0.0,0.0,0.0,474.0,78.0
25.05,0.0,405.0,0.0,0.0,0.0,0.0,2280.0,88.0
25.07,0.0,106.0,0.0,0.0,0.0,0.0,2350.0,97.0
25.05,0.0,80.0,0.0,0.0,0.0,0.0,2369.0,100.0
24.99,0.0,110.0,0.0,0.0,0.0,0.0,2468.0,100.0
25.01,0.0,114.0,0.0,0.0,0.0,0.0,2512.0,100.0
25.01,0.0,0.0,0.0,0.0,0.0,0.0,2523.0,100.0
25.01,0.0,114.0,0.0,0.0,0.0,0.0,2543.0,100.0
25.05,0.0,111.0,0.0,0.0,0.0,0.0,2542.0,100.0
24.99,0.0,86.0,0.0,0.0,0.0,0.0,2498.0,100.0
24.99,0.0,86.0,0.0,0.0,0.0,0.0,2509.0,100.0
24.93,0.0,112.0,0.0,0.0,0.0,0.0,2337.0,100.0
24.95,0.0,104.0,0.0,0.0,0.0,0.0,2263.0,100.0
24.93,0.0,144.0,0.0,0.0,0.0,0.0,2261.0,100.0
24.99,0.0,159.0,0.0,0.0,0.0,0.0,2164.0,100.0
25.07,0.0,151.0,0.0,0.0,0.0,0.0,2238.0,100.0
25.05,0.0,151.0,0.0,0.0,82.0,0.0,2277.0,100.0
25.01,0.0,182.0,0.0,0.0,112.0,0.0,2304.0,100.0
25.07,0.0,155.0,0.0,0.0,144.0,0.0,2326.0,100.0
25.05,0.0,142.0,0.0,0.0,161.0,0.0,2297.0,100.0
24.99,0.0,166.0,0.0,0.0,100.0,0.0,2365.0,100.0
24.93,0.0,171.0,0.0,0.0,129.0,0.0,2368.0,100.0
24.99,0.0,168.0,0.0,0.0,134.0,0.0,2378.0,100.0
24.95,0.0,175.0,0.0,0.0,0.0,0.0,2273.0,100.0
24.93,0.0,163.0,0.0,0.0,45.0,0.0,2412.0,100.0
24.95,0.0,144.0,0.0,0.0,0.0,0.0,2425.0,100.0
24.89,0.0,136.0,0.0,0.0,0.0,0.0,2475.0,100.0
24.89,0.0,144.0,0.0,0.0,0.0,0.0,2543.0,100.0
24.89,0.0,81.0,0.0,0.0,0.0,0.0,2631.0,100.0
24.89,0.0,86.0,0.0,0.0,0.0,0.0,2718.0,100.0
24.93,0.0,20.0,0.0,0.0,0.0,0.0,2739.0,100.0
24.95,0.0,18.0,0.0,0.0,0.0,0.0,2831.0,100.0
24.95,0.0,34.0,0.0,0.0,0.0,0.0,2832.0,100.0
24.95,0.0,16.0,0.0,0.0,0.0,0.0,2811.0,100.0
24.89,0.0,0.0,0.0,0.0,0.0,0.0,2886.0,100.0
24.95,0.0,0.0,0.0,0.0,0.0,0.0,2884.0,100.0
24.87,0.0,0.0,0.0,0.0,0.0,0.0,2947.0,100.0
24.93,0.0,0.0,0.0,0.0,0.0,0.0,2971.0,100.0
24.87,0.0,0.0,0.0,0.0,80.0,0.0,2953.0,100.0
24.87,0.0,0.0,0.0,0.0,0.0,0.0,2958.0,100.0
24.83,0.0,0.0,0.0,0.0,0.0,0.0,2957.0,100.0
24.81,0.0,0.0,0.0,0.0,0.0,0.0,2976.0,100.0
24.81,0.0,0.0,0.0,0.0,0.0,0.0,2974.0,100.0
24.77,0.0,0.0,0.0,0.0,0.0,0.0,2985.0,100.0
24.83,0.0,0.0,0.0,0.0,0.0,0.0,2989.0,100.0
24.87,0.0,0.0,0.0,0.0,0.0,0.0,2984.0,100.0
24.87,0.0,0.0,0.0,0.0,0.0,0.0,2989.0,100.0
24.87,0.0,0.0,0.0,0.0,0.0,0.0,2995.0,100.0
24.81,0.0,54.0,0.0,0.0,0.0,0.0,2991.0,100.0
24.87,0.0,0.0,0.0,0.0,0.0,0.0,2989.0,100.0
24.71,0.0,0.0,0.0,0.0,0.0,0.0,3004.0,100.0
24.77,0.0,0.0,0.0,0.0,0.0,0.0,2993.0,100.0
24.81,0.0,0.0,0.0,0.0,0.0,0.0,3005.0,100.0
24.75,0.0,0.0,0.0,0.0,0.0,0.0,3004.0,100.0
24.75,0.0,0.0,0.0,0.0,0.0,0.0,3005.0,100.0
24.71,0.0,0.0,0.0,0.0,0.0,0.0,3008.0,100.0
24.71,0.0,0.0,0.0,0.0,0.0,0.0,3012.0,100.0
24.69,0.0,0.0,0.0,0.0,0.0,0.0,3018.0,100.0
24.69,0.0,0.0,0.0,0.0,0.0,0.0,3017.0,100.0
24.71,0.0,0.0,0.0,0.0,0.0,0.0,3021.0,100.0
24.87,0.0,0.0,0.0,0.0,0.0,0.0,3020.0,100.0
24.83,0.0,0.0,0.0,0.0,0.0,0.0,3023.0,100.0
24.87,0.0,0.0,0.0,0.0,0.0,0.0,3025.0,100.0
24.81,0.0,0.0,0.0,0.0,0.0,0.0,3035.0,100.0
24.83,0.0,0.0,0.0,0.0,0.0,0.0,3014.0,100.0
24.87,0.0,0.0,0.0,0.0,0.0,0.0,3011.0,100.0
24.69,0.0,0.0,0.0,0.0,0.0,0.0,3029.0,100.0
24.69,0.0,0.0,0.0,0.0,0.0,0.0,3021.0,100.0
24.69,0.0,0.0,0.0,0.0,0.0,0.0,3029.0,100.0
24.63,0.0,0.0,0.0,0.0,0.0,0.0,3029.0,100.0
24.69,0.0,0.0,0.0,0.0,0.0,0.0,3026.0,100.0
24.63,0.0,0.0,0.0,0.0,0.0,0.0,3017.0,100.0
24.65,0.0,0.0,0.0,0.0,0.0,0.0,3019.0,100.0
24.75,0.0,0.0,0.0,0.0,0.0,0.0,3024.0,100.0
24.69,0.0,0.0,0.0,0.0,0.0,0.0,3022.0,100.0
24.65,0.0,0.0,0.0,0.0,0.0,0.0,3023.0,100.0
24.75,0.0,0.0,0.0,0.0,0.0,0.0,3016.0,100.0
24.75,0.0,0.0,0.0,0.0,0.0,0.0,3031.0,100.0
24.65,0.0,0.0,0.0,0.0,0.0,0.0,3019.0,100.0
24.69,0.0,0.0,0.0,0.0,0.0,0.0,3027.0,100.0
24.71,0.0,0.0,0.0,0.0,0.0,0.0,3026.0,100.0
24.63,0.0,0.0,0.0,0.0,0.0,0.0,3022.0,100.0
24.75,0.0,0.0,0.0,0.0,0.0,0.0,3028.0,100.0
24.75,0.0,0.0,0.0,0.0,0.0,0.0,3019.0,100.0
24.69,0.0,0.0,0.0,0.0,0.0,0.0,3023.0,100.0
24.77,0.0,0.0,0.0,0.0,0.0,0.0,3028.0,100.0
24.71,0.0,0.0,0.0,0.0,0.0,0.0,3033.0,100.0
24.77,0.0,0.0,0.0,0.0,0.0,0.0,3030.0,100.0
24.75,0.0,0.0,0.0,0.0,0.0,0.0,3024.0,100.0
24.71,0.0,0.0,0.0,0.0,0.0,0.0,3025.0,100.0
24.71,0.0,1.0,0.0,0.0,0.0,0.0,3028.0,100.0
24.89,0.0,0.0,0.0,0.0,0.0,0.0,36.0,15.0
24.89,0.0,0.0,0.0,0.0,0.0,0.0,14.0,15.0
25.73,0.0,0.0,0.0,0.0,0.0,0.0,0.0,15.0
25.99,0.0,0.0,0.0,0.0,0.0,0.0,0.0,15.0
25.93,0.0,0.0,0.0,0.0,0.0,0.0,0.0,15.0
25.91,0.0,0.0,0.0,0.0,0.0,0.0,0.0,15.0
26.09,0.0,0.0,0.0,0.0,0.0,0.0,0.0,15.0
25.99,0.0,0.0,0.0,0.0,0.0,0.0,0.0,15.0
25.73,0.0,0.0,0.0,0.0,0.0,0.0,0.0,15.0
25.69,0.0,0.0,0.0,0.0,0.0,0.0,0.0,15.0
25.73,0.0,0.0,0.0,0.0,0.0,0.0,0.0,15.0
25.79,0.0,0.0,0.0,0.0,0.0,0.0,0.0,15.0
25.75,0.0,0.0,0.0,0.0,0.0,0.0,0.0,15.0
25.73,0.0,0.0,0.0,0.0,0.0,0.0,0.0,15.0
25.69,0.0,0.0,0.0,0.0,0.0,0.0,0.0,15.0
25.73,0.0,0.0,0.0,0.0,0.0,0.0,0.0,15.0
25.75,0.0,0.0,0.0,0.0,0.0,0.0,0.0,15.0
25.85,0.0,0.0,0.0,0.0,0.0,0.0,0.0,15.0
25.79,0.0,0.0,0.0,0.0,0.0,0.0,0.0,15.0
25.81,0.0,0.0,0.0,0.0,0.0,0.0,0.0,15.0
25.87,0.0,0.0,0.0,0.0,0.0,0.0,0.0,15.0
26.11,0.0,0.0,0.0,0.0,0.0,0.0,0.0,15.0
26.11,0.0,0.0,0.0,0.0,0.0,0.0,0.0,15.0
26.09,0.0,0.0,0.0,0.0,0.0,0.0,0.0,15.0
26.29,0.0,0.0,0.0,0.0,0.0,0.0,0.0,15.0
26.53,0.0,0.0,0.0,0.0,0.0,0.0,0.0,15.0
26.77,0.0,0.0,0.0,0.0,0.0,0.0,0.0,15.0
27.17,0.0,0.0,0.0,0.0,0.0,0.0,0.0,15.0
27.75,0.0,0.0,0.0,0.0,0.0,0.0,0.0,15.0
28.01,0.0,0.0,0.0,0.0,0.0,0.0,0.0,15.0
27.95,0.0,0.0,0.0,0.0,0.0,0.0,0.0,15.0
28.05,0.0,0.0,0.0,0.0,0.0,0.0,0.0,15.0
28.85,0.0,0.0,0.0,0.0,0.0,0.0,0.0,15.0
29.75,0.0,0.0,0.0,0.0,0.0,0.0,0.0,15.0
30.19,0.0,0.0,0.0,0.0,0.0,0.0,0.0,15.0
30.97,0.0,0.0,0.0,0.0,0.0,0.0,0.0,15.0
31.35,0.0,0.0,0.0,0.0,0.0,0.0,0.0,15.0
31.61,0.0,0.0,104.0,0.0,0.0,0.0,0.0,15.0
31.77,0.0,0.0,0.0,0.0,0.0,0.0,0.0,15.0
32.09,0.0,0.0,0.0,0.0,0.0,0.0,0.0,15.0
32.31,0.0,0.0,0.0,0.0,0.0,0.0,0.0,15.0
32.69,0.0,0.0,0.0,0.0,0.0,0.0,0.0,15.0
32.75,0.0,0.0,0.0,0.0,0.0,0.0,0.0,15.0
33.05,0.0,0.0,0.0,0.0,0.0,0.0,0.0,15.0
34.39,0.0,0.0,0.0,0.0,0.0,0.0,0.0,15.0
36.21,0.0,0.0,0.0,0.0,0.0,0.0,0.0,15.0
36.37,0.0,0.0,0.0,0.0,0.0,0.0,0.0,15.0
36.63,0.0,0.0,0.0,0.0,0.0,0.0,0.0,15.0
37.03,0.0,0.0,0.0,0.0,0.0,0.0,0.0,15.0
37.95,0.0,0.0,0.0,0.0,0.0,0.0,0.0,15.0
38.05,0.0,0.0,0.0,0.0,0.0,0.0,0.0,20.0
38.27,0.0,0.0,0.0,0.0,0.0,0.0,0.0,30.0
38.13,0.0,0.0,0.0,0.0,0.0,0.0,0.0,40.0
38.21,0.0,0.0,0.0,0.0,0.0,0.0,0.0,50.0
38.27,0.0,0.0,0.0,0.0,0.0,0.0,0.0,58.0
38.17,0.0,0.0,0.0,0.0,0.0,0.0,1294.0,69.0
37.99,0.0,294.0,0.0,0.0,425.0,0.0,2387.0,79.0
37.85,0.0,550.0,0.0,0.0,347.0,0.0,2524.0,88.0
37.75,0.0,541.0,0.0,0.0,306.0,0.0,2546.0,98.0
37.67,0.0,580.0,0.0,0.0,277.0,0.0,2617.0,100.0
37.59,0.0,592.0,0.0,0.0,135.0,0.0,2666.0,100.0
37.59,0.0,587.0,0.0,0.0,237.0,0.0,2675.0,100.0
37.49,0.0,543.0,0.0,0.0,135.0,0.0,2605.0,100.0
37.43,0.0,538.0,0.0,0.0,125.0,0.0,2613.0,100.0
37.41,0.0,529.0,0.0,0.0,128.0,0.0,2624.0,100.0
37.35,0.0,541.0,0.0,0.0,129.0,0.0,2626.0,100.0
37.45,0.0,546.0,0.0,0.0,176.0,0.0,2632.0,100.0
37.55,0.0,553.0,0.0,0.0,130.0,0.0,2648.0,100.0
37.59,0.0,544.0,0.0,0.0,128.0,0.0,2657.0,100.0
37.61,0.0,560.0,0.0,0.0,144.0,0.0,2667.0,100.0
37.55,0.0,550.0,0.0,0.0,119.0,0.0,2642.0,100.0
37.49,0.0,572.0,0.0,0.0,201.0,0.0,2602.0,100.0
37.55,0.0,594.0,0.0,0.0,256.0,0.0,2551.0,100.0
37.59,0.0,608.0,0.0,0.0,324.0,0.0,2518.0,100.0
37.63,0.0,640.0,0.0,0.0,388.0,0.0,2502.0,100.0
37.67,0.0,635.0,0.0,0.0,476.0,0.0,2502.0,100.0
37.67,0.0,647.0,0.0,0.0,560.0,0.0,2473.0,100.0
37.67,0.0,641.0,0.0,0.0,586.0,0.0,2522.0,100.0
37.71,0.0,671.0,0.0,0.0,592.0,0.0,2552.0,100.0
37.71,0.0,672.0,0.0,0.0,526.0,0.0,2559.0,100.0
37.75,0.0,658.0,0.0,0.0,543.0,0.0,2591.0,100.0
37.77,0.0,672.0,0.0,0.0,557.0,0.0,2576.0,100.0
37.71,0.0,674.0,0.0,0.0,576.0,0.0,2598.0,100.0
37.71,0.0,654.0,0.0,0.0,603.0,0.0,2576.0,100.0
37.75,0.0,687.0,0.0,0.0,592.0,0.0,2610.0,100.0
37.69,0.0,678.0,0.0,0.0,586.0,0.0,2595.0,100.0
37.77,0.0,678.0,0.0,0.0,511.0,0.0,2621.0,100.0
37.77,0.0,665.0,0.0,0.0,427.0,0.0,2646.0,100.0
37.77,0.0,662.0,0.0,0.0,433.0,0.0,2670.0,100.0
37.75,0.0,637.0,0.0,0.0,327.0,0.0,2702.0,100.0
37.75,0.0,613.0,0.0,0.0,301.0,0.0,2723.0,100.0
37.63,0.0,599.0,0.0,0.0,216.0,0.0,2826.0,100.0
37.63,0.0,576.0,0.0,0.0,176.0,0.0,2868.0,100.0
37.71,0.0,505.0,0.0,0.0,187.0,0.0,2845.0,100.0
37.83,0.0,419.0,0.0,0.0,132.0,0.0,2885.0,100.0
37.77,0.0,419.0,0.0,0.0,176.0,0.0,2958.0,100.0
37.69,0.0,421.0,0.0,0.0,176.0,0.0,2966.0,100.0
37.67,0.0,448.0,0.0,0.0,194.0,0.0,2972.0,100.0
37.67,0.0,433.0,0.0,0.0,198.0,0.0,2980.0,100.0
37.69,0.0,429.0,0.0,0.0,206.0,0.0,2977.0,100.0
37.75,0.0,432.0,0.0,0.0,198.0,0.0,2990.0,100.0
37.69,0.0,415.0,0.0,0.0,200.0,0.0,2997.0,100.0
37.67,0.0,431.0,0.0,0.0,208.0,0.0,2989.0,100.0
37.67,0.0,436.0,0.0,0.0,210.0,0.0,3004.0,100.0
37.59,0.0,439.0,0.0,0.0,208.0,0.0,2998.0,100.0
37.55,0.0,445.0,0.0,0.0,205.0,0.0,3021.0,100.0
37.59,0.0,267.0,0.0,0.0,208.0,0.0,3011.0,100.0
37.61,176.0,432.0,0.0,0.0,208.0,0.0,3003.0,100.0
37.63,0.0,438.0,0.0,0.0,208.0,0.0,3006.0,100.0
37.49,0.0,438.0,0.0,0.0,206.0,0.0,3011.0,100.0
37.49,0.0,427.0,0.0,0.0,208.0,0.0,3005.0,100.0
37.45,0.0,436.0,0.0,0.0,220.0,0.0,3004.0,100.0
37.43,0.0,406.0,0.0,0.0,218.0,0.0,3017.0,100.0
37.49,0.0,438.0,0.0,0.0,208.0,0.0,3011.0,100.0
37.49,0.0,433.0,0.0,0.0,219.0,0.0,3009.0,100.0
37.43,0.0,448.0,0.0,0.0,208.0,0.0,3019.0,100.0
37.49,0.0,442.0,0.0,0.0,211.0,0.0,3030.0,100.0
37.41,0.0,442.0,0.0,0.0,215.0,0.0,3018.0,100.0
37.43,0.0,445.0,0.0,0.0,214.0,0.0,3024.0,100.0
37.45,0.0,445.0,0.0,0.0,214.0,0.0,3021.0,100.0
37.41,0.0,448.0,0.0,0.0,210.0,0.0,3031.0,100.0
37.45,0.0,420.0,0.0,0.0,215.0,0.0,3036.0,100.0
37.49,0.0,446.0,0.0,0.0,192.0,0.0,3034.0,100.0
37.45,0.0,450.0,0.0,0.0,221.0,0.0,3039.0,100.0
37.49,0.0,451.0,0.0,0.0,215.0,0.0,3038.0,100.0
37.49,0.0,437.0,0.0,0.0,223.0,0.0,3038.0,100.0
37.51,0.0,449.0,0.0,0.0,223.0,0.0,3040.0,100.0
37.43,0.0,441.0,0.0,0.0,219.0,0.0,3033.0,100.0
37.49,0.0,448.0,0.0,0.0,218.0,0.0,3034.0,100.0
37.45,0.0,448.0,0.0,0.0,217.0,0.0,3036.0,100.0
37.35,0.0,448.0,0.0,0.0,190.0,0.0,3040.0,100.0
37.29,0.0,448.0,0.0,0.0,221.0,0.0,3038.0,100.0
37.33,0.0,447.0,0.0,0.0,219.0,0.0,3042.0,100.0
37.49,0.0,442.0,0.0,0.0,213.0,0.0,3039.0,100.0
37.49,0.0,445.0,0.0,0.0,214.0,0.0,3039.0,100.0
37.53,0.0,449.0,0.0,0.0,214.0,0.0,3037.0,100.0
37.53,0.0,450.0,0.0,0.0,223.0,0.0,3045.0,100.0
37.37,0.0,449.0,0.0,0.0,228.0,0.0,3053.0,100.0
37.51,0.0,438.0,0.0,0.0,219.0,0.0,3052.0,100.0
37.45,0.0,441.0,0.0,0.0,215.0,0.0,3046.0,100.0
37.45,0.0,453.0,0.0,0.0,212.0,0.0,3046.0,100.0
37.43,0.0,449.0,0.0,0.0,221.0,0.0,3052.0,100.0
37.29,0.0,448.0,0.0,0.0,228.0,0.0,3051.0,100.0
37.27,0.0,450.0,0.0,0.0,221.0,0.0,3054.0,100.0
37.21,0.0,454.0,0.0,0.0,221.0,0.0,3058.0,100.0
37.17,0.0,451.0,0.0,0.0,223.0,0.0,3058.0,15.0
37.03,0.0,0.0,0.0,0.0,0.0,0.0,7.0,15.0
26.83,0.0,0.0,0.0,0.0,0.0,0.0,0.0,15.0
26.65,0.0,0.0,0.0,0.0,0.0,0.0,0.0,15.0
26.53,0.0,0.0,0.0,0.0,0.0,0.0,0.0,15.0
26.27,0.0,0.0,0.0,0.0,0.0,0.0,0.0,15.0
26.23,0.0,0.0,0.0,0.0,0.0,0.0,0.0,15.0
26.43,0.0,0.0,0.0,0.0,0.0,0.0,0.0,15.0
26.53,0.0,0.0,0.0,0.0,0.0,0.0,0.0,15.0
26.21,0.0,0.0,0.0,0.0,0.0,0.0,0.0,15.0
26.09,0.0,0.0,0.0,0.0,0.0,0.0,0.0,15.0
26.15,0.0,0.0,0.0,0.0,0.0,0.0,0.0,15.0
26.21,0.0,0.0,0.0,0.0,0.0,0.0,0.0,15.0
26.15,0.0,0.0,0.0,0.0,0.0,0.0,0.0,15.0
26.15,0.0,0.0,0.0,0.0,0.0,0.0,0.0,15.0
26.15,0.0,0.0,0.0,0.0,0.0,0.0,0.0,15.0
26.17,0.0,0.0,0.0,0.0,0.0,0.0,0.0,15.0
26.17,0.0,0.0,0.0,0.0,0.0,0.0,0.0,15.0
26.09,0.0,0.0,0.0,0.0,0.0,0.0,0.0,15.0
26.09,0.0,0.0,0.0,0.0,0.0,0.0,0.0,15.0
26.09,0.0,0.0,0.0,0.0,0.0,0.0,0.0,15.0
26.09,0.0,0.0,0.0,0.0,0.0,0.0,0.0,15.0
26.09,0.0,0.0,0.0,0.0,0.0,0.0,0.0,15.0
26.05,0.0,0.0,0.0,0.0,0.0,0.0,0.0,15.0
26.05,0.0,0.0,0.0,0.0,0.0,0.0,0.0,15.0
26.17,0.0,0.0,0.0,0.0,0.0,0.0,0.0,15.0
25.91,0.0,0.0,0.0,0.0,0.0,0.0,0.0,15.0
25.91,0.0,0.0,0.0,0.0,0.0,0.0,0.0,15.0
25.91,0.0,0.0,0.0,0.0,0.0,0.0,0.0,15.0
25.85,0.0,0.0,0.0,0.0,0.0,0.0,0.0,15.0
25.91,0.0,0.0,0.0,0.0,0.0,0.0,0.0,15.0
25.93,0.0,0.0,0.0,0.0,0.0,0.0,0.0,15.0
25.85,0.0,0.0,0.0,0.0,0.0,0.0,0.0,15.0
25.81,0.0,0.0,0.0,0.0,0.0,0.0,0.0,15.0
25.85,0.0,0.0,0.0,0.0,0.0,0.0,0.0,15.0
25.87,0.0,0.0,0.0,0.0,0.0,0.0,0.0,15.0
25.87,0.0,0.0,0.0,0.0,0.0,0.0,0.0,15.0
25.73,0.0,0.0,0.0,0.0,0.0,0.0,0.0,15.0
25.81,0.0,0.0,0.0,0.0,0.0,0.0,0.0,15.0
25.81,0.0,0.0,0.0,0.0,0.0,0.0,0.0,15.0
25.93,0.0,0.0,0.0,0.0,0.0,0.0,0.0,15.0
25.85,0.0,0.0,0.0,0.0,0.0,0.0,0.0,15.0
25.87,0.0,0.0,0.0,0.0,0.0,0.0,0.0,15.0
25.87,0.0,0.0,0.0,0.0,0.0,0.0,0.0,15.0
25.81,0.0,0.0,0.0,0.0,0.0,0.0,0.0,15.0
25.91,0.0,0.0,0.0,0.0,0.0,0.0,0.0,15.0
25.79,0.0,0.0,0.0,0.0,0.0,0.0,0.0,15.0
25.75,0.0,0.0,0.0,0.0,0.0,0.0,0.0,15.0
25.79,0.0,0.0,0.0,0.0,0.0,0.0,0.0,15.0
25.79,0.0,0.0,0.0,0.0,0.0,0.0,0.0,15.0
25.81,0.0,0.0,0.0,0.0,0.0,0.0,0.0,15.0
25.87,0.0,0.0,0.0,0.0,0.0,0.0,0.0,15.0
25.87,0.0,0.0,0.0,0.0,0.0,0.0,0.0,15.0
25.87,0.0,0.0,0.0,0.0,0.0,0.0,0.0,20.0
25.91,0.0,0.0,0.0,0.0,0.0,0.0,0.0,29.0
25.99,0.0,0.0,0.0,0.0,0.0,0.0,0.0,39.0
26.03,0.0,0.0,0.0,0.0,0.0,0.0,0.0,48.0
26.15,0.0,0.0,0.0,0.0,0.0,0.0,0.0,58.0
26.09,0.0,0.0,0.0,0.0,0.0,0.0,0.0,68.0
25.97,0.0,0.0,0.0,0.0,0.0,0.0,286.0,78.0
25.93,0.0,101.0,0.0,0.0,0.0,0.0,2140.0,87.0
25.91,0.0,235.0,0.0,0.0,0.0,0.0,2216.0,88.0
25.99,0.0,321.0,0.0,0.0,0.0,0.0,2259.0,88.0
25.99,0.0,272.0,0.0,0.0,0.0,0.0,2282.0,88.0
25.85,0.0,274.0,0.0,0.0,0.0,0.0,2303.0,88.0
25.93,0.0,219.0,0.0,0.0,0.0,0.0,2158.0,88.0
25.93,0.0,197.0,0.0,0.0,0.0,0.0,2134.0,88.0
25.93,0.0,171.0,0.0,0.0,0.0,0.0,2073.0,88.0
25.91,0.0,161.0,0.0,0.0,0.0,0.0,1943.0,88.0
25.87,0.0,150.0,0.0,0.0,0.0,0.0,2027.0,88.0
25.97,0.0,162.0,0.0,0.0,0.0,0.0,2048.0,88.0
25.93,0.0,160.0,0.0,0.0,0.0,0.0,2082.0,88.0
25.93,0.0,171.0,0.0,0.0,0.0,0.0,2082.0,88.0
25.85,0.0,176.0,0.0,0.0,0.0,0.0,2086.0,88.0
25.87,0.0,177.0,0.0,0.0,0.0,0.0,2099.0,88.0
25.93,0.0,190.0,0.0,0.0,0.0,0.0,2099.0,88.0
25.99,0.0,185.0,0.0,0.0,0.0,0.0,2107.0,88.0
25.93,0.0,192.0,0.0,0.0,0.0,0.0,2119.0,88.0
25.99,0.0,200.0,0.0,0.0,0.0,0.0,2116.0,88.0
26.05,0.0,190.0,0.0,0.0,0.0,0.0,2121.0,88.0
26.15,0.0,192.0,0.0,0.0,0.0,0.0,2127.0,88.0
26.11,0.0,191.0,0.0,0.0,0.0,0.0,2130.0,88.0
26.11,0.0,207.0,0.0,0.0,0.0,0.0,2145.0,88.0
25.97,0.0,204.0,0.0,0.0,0.0,0.0,2159.0,88.0
26.09,0.0,415.0,0.0,0.0,0.0,0.0,2156.0,88.0
25.99,0.0,205.0,0.0,0.0,0.0,0.0,2148.0,88.0
25.87,0.0,201.0,0.0,0.0,0.0,0.0,2150.0,88.0
25.91,0.0,208.0,0.0,0.0,0.0,0.0,2161.0,88.0
25.97,0.0,208.0,0.0,0.0,0.0,0.0,2164.0,88.0
25.93,0.0,205.0,0.0,0.0,0.0,0.0,2174.0,88.0
25.97,0.0,202.0,0.0,48.0,0.0,0.0,2173.0,88.0
26.05,0.0,201.0,0.0,0.0,0.0,0.0,2196.0,88.0
26.09,0.0,195.0,0.0,0.0,0.0,0.0,2197.0,88.0
26.03,0.0,196.0,0.0,0.0,0.0,0.0,2194.0,88.0
25.99,0.0,190.0,0.0,0.0,0.0,0.0,2198.0,88.0
26.05,0.0,192.0,0.0,0.0,0.0,0.0,2199.0,88.0
26.05,0.0,198.0,0.0,0.0,0.0,0.0,2197.0,88.0
26.03,0.0,204.0,0.0,0.0,0.0,0.0,2202.0,88.0
25.99,0.0,197.0,0.0,0.0,0.0,0.0,2197.0,88.0
26.03,0.0,203.0,0.0,0.0,0.0,0.0,2191.0,88.0
26.03,0.0,191.0,0.0,0.0,0.0,0.0,2202.0,88.0
26.03,0.0,195.0,0.0,0.0,0.0,0.0,2205.0,88.0
25.99,0.0,193.0,0.0,0.0,0.0,0.0,2202.0,88.0
25.93,0.0,206.0,0.0,0.0,0.0,0.0,2201.0,88.0
25.93,0.0,197.0,0.0,0.0,0.0,0.0,2200.0,88.0
26.03,0.0,196.0,0.0,0.0,0.0,0.0,2209.0,88.0
26.03,0.0,0.0,0.0,0.0,0.0,0.0,2204.0,88.0
25.93,0.0,203.0,0.0,0.0,0.0,0.0,2215.0,88.0
25.93,0.0,206.0,0.0,0.0,0.0,0.0,2208.0,88.0
25.87,0.0,205.0,0.0,0.0,0.0,0.0,2209.0,88.0
25.87,0.0,218.0,0.0,0.0,0.0,0.0,2219.0,88.0
25.87,0.0,203.0,0.0,0.0,0.0,0.0,2215.0,88.0
25.87,0.0,199.0,0.0,0.0,0.0,0.0,2225.0,88.0
25.93,0.0,198.0,0.0,0.0,0.0,0.0,2210.0,88.0
25.99,0.0,199.0,0.0,0.0,0.0,0.0,2211.0,88.0
25.99,0.0,196.0,0.0,0.0,0.0,0.0,2215.0,88.0
25.91,0.0,205.0,0.0,0.0,0.0,256.0,2219.0,88.0
25.99,0.0,238.0,0.0,0.0,0.0,0.0,2226.0,88.0
25.93,0.0,208.0,0.0,0.0,0.0,0.0,2231.0,88.0
25.93,0.0,202.0,0.0,0.0,0.0,0.0,2235.0,88.0
25.91,0.0,208.0,0.0,0.0,0.0,0.0,2235.0,88.0
25.91,0.0,208.0,0.0,0.0,0.0,0.0,2229.0,88.0
25.91,0.0,194.0,0.0,0.0,0.0,0.0,2238.0,88.0
25.93,0.0,199.0,0.0,0.0,0.0,0.0,2237.0,88.0
25.91,0.0,208.0,0.0,0.0,0.0,0.0,2236.0,88.0
25.99,0.0,205.0,0.0,0.0,0.0,0.0,2234.0,88.0
25.93,0.0,208.0,0.0,0.0,0.0,0.0,2237.0,88.0
26.03,0.0,212.0,0.0,0.0,0.0,0.0,2234.0,88.0
25.91,0.0,205.0,0.0,0.0,0.0,0.0,2228.0,88.0
26.05,0.0,217.0,0.0,0.0,0.0,0.0,2231.0,88.0
26.05,0.0,206.0,0.0,0.0,0.0,0.0,2238.0,88.0
26.05,0.0,218.0,0.0,0.0,0.0,0.0,2237.0,88.0
26.05,0.0,203.0,0.0,0.0,0.0,0.0,2237.0,88.0
26.03,0.0,208.0,0.0,0.0,0.0,0.0,2235.0,88.0
26.05,0.0,205.0,0.0,0.0,0.0,0.0,2241.0,88.0
26.03,0.0,207.0,0.0,0.0,0.0,0.0,2239.0,88.0
25.97,0.0,208.0,0.0,0.0,0.0,0.0,2241.0,88.0
26.03,0.0,208.0,0.0,0.0,0.0,0.0,2247.0,88.0
26.05,0.0,212.0,0.0,0.0,0.0,0.0,2250.0,88.0
25.97,0.0,205.0,0.0,0.0,0.0,0.0,2244.0,88.0
26.03,0.0,305.0,0.0,0.0,0.0,0.0,2249.0,88.0
25.91,0.0,208.0,0.0,0.0,0.0,0.0,2244.0,88.0
26.03,0.0,204.0,0.0,0.0,0.0,0.0,2257.0,88.0
25.97,0.0,211.0,0.0,0.0,0.0,0.0,2246.0,88.0
25.91,0.0,208.0,0.0,0.0,0.0,0.0,2246.0,88.0
26.05,0.0,203.0,0.0,0.0,0.0,0.0,2248.0,15.0
25.87,0.0,0.0,0.0,0.0,0.0,0.0,0.0,15.0
25.81,0.0,0.0,0.0,0.0,0.0,0.0,0.0,15.0
25.81,0.0,0.0,0.0,0.0,0.0,0.0,0.0,15.0
25.73,0.0,0.0,0.0,0.0,0.0,0.0,0.0,15.0
25.75,0.0,0.0,0.0,0.0,0.0,0.0,0.0,15.0
26.11,0.0,0.0,0.0,0.0,0.0,0.0,0.0,15.0
25.99,0.0,0.0,0.0,0.0,0.0,0.0,0.0,15.0
25.85,0.0,0.0,0.0,0.0,0.0,0.0,0.0,15.0
25.75,0.0,0.0,0.0,0.0,0.0,0.0,0.0,15.0
25.75,0.0,0.0,0.0,0.0,0.0,0.0,0.0,15.0
25.75,0.0,0.0,0.0,0.0,0.0,0.0,0.0,15.0
25.75,0.0,0.0,0.0,0.0,0.0,0.0,0.0,15.0
25.73,0.0,0.0,0.0,0.0,0.0,0.0,0.0,15.0
25.75,0.0,0.0,0.0,0.0,0.0,0.0,0.0,15.0
25.69,0.0,0.0,0.0,0.0,0.0,0.0,0.0,15.0
25.79,0.0,0.0,0.0,0.0,0.0,0.0,0.0,15.0
25.75,0.0,0.0,0.0,0.0,0.0,0.0,0.0,15.0
25.75,0.0,0.0,0.0,0.0,0.0,0.0,0.0,15.0
25.79,0.0,0.0,0.0,0.0,0.0,0.0,0.0,15.0
25.81,0.0,0.0,0.0,0.0,0.0,0.0,0.0,15.0
25.79,0.0,0.0,0.0,0.0,0.0,0.0,0.0,15.0
25.79,0.0,0.0,0.0,0.0,0.0,0.0,0.0,15.0
25.79,0.0,0.0,0.0,0.0,0.0,0.0,0.0,15.0
25.85,0.0,0.0,0.0,0.0,0.0,0.0,0.0,15.0
