tempMLX,FSR_A1,FSR_A2,FSR_A3,FSR_B1,FSR_B2,FSR_B3,FSR_C,porcAper
0.0,0.0,0.0,0.0,0.0,0.0,0.0,0.0,15.0
0.0,0.0,0.0,0.0,0.0,0.0,0.0,0.0,15.0
25.87,0.0,0.0,0.0,0.0,0.0,0.0,0.0,15.0
25.87,0.0,0.0,0.0,0.0,0.0,0.0,0.0,15.0
25.91,0.0,0.0,0.0,0.0,0.0,0.0,0.0,15.0
25.91,0.0,0.0,0.0,0.0,0.0,0.0,0.0,15.0
25.85,0.0,0.0,0.0,0.0,0.0,0.0,0.0,15.0
25.81,0.0,0.0,0.0,0.0,0.0,0.0,0.0,15.0
25.81,0.0,0.0,0.0,0.0,0.0,0.0,0.0,15.0
25.79,0.0,0.0,0.0,0.0,0.0,0.0,0.0,15.0
25.81,0.0,0.0,0.0,0.0,0.0,0.0,0.0,15.0
25.85,0.0,0.0,0.0,0.0,0.0,0.0,0.0,15.0
25.91,0.0,0.0,0.0,0.0,0.0,0.0,0.0,15.0
25.85,0.0,0.0,0.0,0.0,0.0,0.0,0.0,15.0
25.79,0.0,0.0,0.0,0.0,0.0,0.0,0.0,15.0
25.93,0.0,0.0,0.0,0.0,0.0,0.0,0.0,15.0
25.99,0.0,0.0,0.0,0.0,0.0,0.0,0.0,15.0
25.87,0.0,0.0,0.0,0.0,0.0,0.0,0.0,15.0
25.87,0.0,0.0,0.0,0.0,0.0,0.0,0.0,15.0
25.91,0.0,0.0,0.0,0.0,0.0,0.0,0.0,15.0
25.81,0.0,0.0,0.0,0.0,0.0,0.0,0.0,15.0
25.87,0.0,0.0,0.0,0.0,0.0,0.0,0.0,15.0
25.81,0.0,0.0,0.0,0.0,0.0,0.0,0.0,15.0
25.87,0.0,0.0,0.0,0.0,0.0,0.0,0.0,15.0
25.91,0.0,0.0,0.0,0.0,0.0,0.0,0.0,15.0
25.87,0.0,0.0,0.0,0.0,0.0,0.0,0.0,15.0
25.85,0.0,0.0,0.0,0.0,0.0,0.0,0.0,15.0
25.75,0.0,0.0,0.0,0.0,0.0,0.0,0.0,15.0
25.85,0.0,0.0,0.0,0.0,0.0,0.0,0.0,15.0
25.85,0.0,0.0,0.0,0.0,0.0,0.0,0.0,15.0
25.85,0.0,0.0,0.0,0.0,0.0,0.0,0.0,15.0
25.93,0.0,0.0,0.0,0.0,0.0,0.0,0.0,15.0
25.87,0.0,0.0,33.0,0.0,0.0,0.0,0.0,15.0
25.87,0.0,0.0,0.0,0.0,0.0,0.0,0.0,15.0
25.91,0.0,0.0,0.0,0.0,0.0,0.0,0.0,15.0
25.87,0.0,0.0,0.0,0.0,0.0,0.0,0.0,15.0
25.85,0.0,0.0,0.0,0.0,0.0,0.0,0.0,15.0
25.93,0.0,0.0,0.0,0.0,0.0,0.0,0.0,15.0
25.91,0.0,0.0,0.0,0.0,0.0,0.0,0.0,15.0
25.87,0.0,0.0,0.0,0.0,0.0,0.0,0.0,15.0
25.81,0.0,0.0,0.0,0.0,0.0,0.0,0.0,15.0
25.91,0.0,0.0,0.0,0.0,0.0,0.0,0.0,15.0
25.91,0.0,0.0,0.0,0.0,0.0,0.0,0.0,15.0
25.87,0.0,0.0,0.0,0.0,0.0,0.0,0.0,15.0
25.81,0.0,0.0,0.0,0.0,0.0,0.0,0.0,15.0
25.85,0.0,0.0,0.0,0.0,0.0,0.0,0.0,15.0
25.81,0.0,0.0,0.0,0.0,0.0,0.0,0.0,15.0
25.85,0.0,0.0,0.0,0.0,0.0,0.0,0.0,15.0
25.79,0.0,0.0,0.0,0.0,0.0,0.0,0.0,15.0
25.81,0.0,0.0,0.0,0.0,0.0,0.0,0.0,15.0
25.79,0.0,0.0,0.0,0.0,0.0,0.0,0.0,15.0
25.79,0.0,0.0,0.0,0.0,0.0,0.0,0.0,15.0
25.87,0.0,0.0,0.0,0.0,0.0,0.0,0.0,15.0
25.85,0.0,0.0,0.0,0.0,0.0,0.0,0.0,15.0
25.91,0.0,0.0,0.0,0.0,0.0,0.0,0.0,15.0
25.81,0.0,0.0,0.0,0.0,0.0,0.0,0.0,15.0
25.81,0.0,0.0,0.0,0.0,0.0,0.0,0.0,15.0
25.85,0.0,0.0,0.0,0.0,0.0,0.0,0.0,15.0
25.87,0.0,0.0,0.0,0.0,0.0,0.0,0.0,15.0
25.85,0.0,0.0,0.0,0.0,0.0,0.0,0.0,15.0
25.81,0.0,0.0,0.0,0.0,0.0,0.0,0.0,15.0
25.79,0.0,0.0,0.0,0.0,0.0,0.0,0.0,15.0
25.93,0.0,0.0,0.0,0.0,0.0,0.0,0.0,15.0
25.81,0.0,0.0,0.0,0.0,0.0,0.0,0.0,15.0
25.85,0.0,0.0,0.0,0.0,0.0,0.0,0.0,15.0
25.81,0.0,0.0,0.0,0.0,0.0,0.0,0.0,15.0
25.75,0.0,0.0,0.0,0.0,0.0,0.0,0.0,15.0
25.85,0.0,0.0,0.0,0.0,0.0,0.0,0.0,15.0
25.81,0.0,0.0,0.0,0.0,0.0,0.0,0.0,15.0
25.85,0.0,0.0,0.0,0.0,0.0,0.0,0.0,15.0
25.79,0.0,0.0,0.0,0.0,0.0,0.0,0.0,15.0
25.85,0.0,0.0,0.0,0.0,0.0,0.0,0.0,15.0
25.85,0.0,0.0,0.0,0.0,0.0,0.0,0.0,15.0
25.81,0.0,0.0,0.0,0.0,192.0,0.0,0.0,15.0
25.81,0.0,0.0,0.0,0.0,0.0,0.0,0.0,15.0
25.85,0.0,0.0,0.0,0.0,0.0,0.0,0.0,15.0
25.87,0.0,0.0,0.0,0.0,0.0,0.0,0.0,15.0
25.85,0.0,0.0,0.0,0.0,0.0,0.0,0.0,15.0
25.85,0.0,0.0,0.0,0.0,0.0,0.0,0.0,15.0
25.91,0.0,0.0,0.0,0.0,0.0,112.0,0.0,15.0
25.87,0.0,0.0,0.0,0.0,0.0,0.0,0.0,15.0
25.93,0.0,0.0,0.0,0.0,0.0,0.0,0.0,15.0
25.91,0.0,0.0,0.0,0.0,0.0,0.0,0.0,15.0
25.93,0.0,0.0,0.0,0.0,0.0,0.0,0.0,15.0
25.93,0.0,0.0,0.0,0.0,0.0,0.0,0.0,15.0
25.87,0.0,0.0,0.0,0.0,0.0,0.0,0.0,15.0
25.85,0.0,0.0,0.0,0.0,0.0,0.0,0.0,15.0
25.87,0.0,0.0,344.0,0.0,0.0,0.0,0.0,15.0
25.87,0.0,0.0,0.0,0.0,0.0,0.0,0.0,15.0
25.91,0.0,0.0,0.0,0.0,0.0,0.0,0.0,15.0
25.87,0.0,0.0,0.0,0.0,0.0,0.0,0.0,15.0
25.87,0.0,0.0,0.0,0.0,0.0,0.0,0.0,15.0
25.81,0.0,0.0,0.0,0.0,0.0,0.0,0.0,15.0
25.91,0.0,0.0,0.0,0.0,0.0,0.0,0.0,15.0
25.85,0.0,0.0,0.0,0.0,0.0,0.0,0.0,15.0
25.85,0.0,0.0,0.0,0.0,0.0,0.0,0.0,15.0
25.79,0.0,0.0,0.0,0.0,0.0,0.0,0.0,15.0
25.85,0.0,0.0,0.0,0.0,0.0,0.0,0.0,15.0
25.87,0.0,0.0,0.0,0.0,0.0,0.0,0.0,15.0
25.85,0.0,0.0,0.0,0.0,0.0,0.0,0.0,15.0
25.87,0.0,0.0,0.0,0.0,0.0,0.0,0.0,15.0
25.87,0.0,0.0,0.0,0.0,0.0,0.0,0.0,15.0
25.91,0.0,0.0,0.0,0.0,0.0,0.0,0.0,15.0
25.85,0.0,0.0,0.0,0.0,0.0,0.0,0.0,15.0
25.87,0.0,0.0,0.0,0.0,0.0,0.0,0.0,15.0
25.85,0.0,0.0,0.0,0.0,0.0,0.0,0.0,15.0
25.85,0.0,0.0,0.0,0.0,0.0,0.0,0.0,15.0
25.81,0.0,0.0,0.0,0.0,0.0,0.0,0.0,15.0
25.85,0.0,0.0,0.0,0.0,0.0,0.0,0.0,15.0
25.91,0.0,0.0,0.0,0.0,0.0,0.0,0.0,15.0
25.91,0.0,0.0,0.0,0.0,0.0,0.0,0.0,15.0
25.93,0.0,0.0,0.0,0.0,0.0,0.0,0.0,15.0
25.85,0.0,0.0,0.0,0.0,0.0,0.0,0.0,15.0
25.97,0.0,0.0,0.0,0.0,0.0,0.0,0.0,15.0
25.87,0.0,0.0,0.0,0.0,0.0,0.0,0.0,15.0
25.85,0.0,0.0,0.0,0.0,0.0,0.0,0.0,15.0
25.85,0.0,0.0,0.0,0.0,0.0,0.0,0.0,15.0
25.97,0.0,0.0,0.0,0.0,0.0,0.0,0.0,15.0
25.93,0.0,0.0,0.0,0.0,0.0,0.0,0.0,15.0
25.97,0.0,0.0,0.0,0.0,0.0,0.0,0.0,15.0
25.93,0.0,0.0,0.0,0.0,0.0,0.0,0.0,15.0
25.85,0.0,0.0,0.0,0.0,0.0,0.0,0.0,15.0
25.93,0.0,0.0,0.0,0.0,0.0,0.0,0.0,15.0
25.93,0.0,0.0,0.0,0.0,0.0,0.0,0.0,15.0
25.81,0.0,0.0,0.0,0.0,0.0,0.0,0.0,15.0
25.93,0.0,0.0,0.0,0.0,0.0,0.0,0.0,15.0
25.85,0.0,0.0,0.0,0.0,0.0,0.0,0.0,15.0
25.87,0.0,0.0,0.0,0.0,0.0,0.0,0.0,15.0
25.87,0.0,0.0,0.0,0.0,0.0,0.0,0.0,15.0
25.91,0.0,0.0,0.0,0.0,0.0,0.0,0.0,15.0
25.87,0.0,0.0,0.0,0.0,0.0,0.0,0.0,15.0
25.97,0.0,0.0,0.0,0.0,0.0,0.0,0.0,15.0
25.87,0.0,0.0,0.0,0.0,0.0,0.0,0.0,15.0
25.87,0.0,0.0,0.0,0.0,0.0,0.0,0.0,15.0
25.87,0.0,0.0,0.0,0.0,0.0,0.0,0.0,17.0
25.91,0.0,0.0,0.0,0.0,0.0,0.0,0.0,17.0
25.91,0.0,0.0,0.0,0.0,0.0,0.0,0.0,17.0
25.91,0.0,0.0,0.0,0.0,0.0,0.0,0.0,17.0
25.91,0.0,0.0,0.0,0.0,0.0,0.0,0.0,17.0
26.11,0.0,0.0,0.0,0.0,0.0,0.0,0.0,17.0
26.21,0.0,0.0,0.0,0.0,0.0,0.0,0.0,17.0
26.31,0.0,0.0,0.0,0.0,0.0,0.0,0.0,17.0
26.59,0.0,0.0,0.0,0.0,0.0,0.0,0.0,17.0
27.21,0.0,0.0,0.0,0.0,0.0,0.0,0.0,17.0
27.15,0.0,0.0,0.0,0.0,0.0,0.0,0.0,17.0
27.43,0.0,0.0,0.0,0.0,0.0,0.0,0.0,17.0
27.31,0.0,0.0,0.0,0.0,0.0,0.0,0.0,17.0
27.47,0.0,0.0,0.0,0.0,0.0,0.0,0.0,17.0
27.31,0.0,0.0,0.0,0.0,0.0,0.0,0.0,19.0
27.43,0.0,0.0,0.0,0.0,0.0,0.0,0.0,30.0
27.25,0.0,0.0,0.0,0.0,0.0,0.0,0.0,40.0
27.29,0.0,0.0,0.0,0.0,0.0,0.0,0.0,50.0
27.25,0.0,0.0,0.0,0.0,0.0,0.0,0.0,59.0
27.15,0.0,0.0,0.0,0.0,0.0,0.0,0.0,69.0
27.09,0.0,0.0,0.0,0.0,0.0,0.0,0.0,78.0
27.05,0.0,0.0,0.0,0.0,0.0,0.0,0.0,83.0
26.97,0.0,0.0,0.0,0.0,0.0,0.0,0.0,83.0
26.97,0.0,0.0,0.0,0.0,0.0,0.0,0.0,83.0
26.97,0.0,0.0,0.0,0.0,0.0,0.0,0.0,83.0
26.93,0.0,0.0,0.0,0.0,0.0,0.0,0.0,83.0
26.93,0.0,0.0,0.0,0.0,0.0,0.0,0.0,83.0
26.97,0.0,0.0,0.0,0.0,0.0,0.0,0.0,83.0
26.91,0.0,0.0,0.0,0.0,0.0,0.0,0.0,83.0
26.91,0.0,0.0,0.0,0.0,0.0,0.0,0.0,83.0
26.93,0.0,0.0,0.0,0.0,0.0,0.0,49.0,83.0
26.87,0.0,0.0,0.0,0.0,0.0,0.0,70.0,83.0
26.87,0.0,0.0,0.0,0.0,0.0,0.0,80.0,83.0
26.91,0.0,0.0,0.0,0.0,0.0,0.0,81.0,83.0
27.05,0.0,0.0,0.0,0.0,0.0,0.0,84.0,83.0
27.09,0.0,0.0,0.0,0.0,0.0,0.0,82.0,83.0
27.09,0.0,0.0,0.0,0.0,0.0,0.0,90.0,83.0
26.99,0.0,0.0,0.0,0.0,0.0,0.0,86.0,83.0
26.97,0.0,0.0,0.0,0.0,0.0,0.0,91.0,85.0
26.97,0.0,0.0,0.0,0.0,0.0,0.0,109.0,85.0
26.97,0.0,0.0,0.0,0.0,0.0,0.0,117.0,85.0
26.99,0.0,0.0,0.0,0.0,0.0,0.0,116.0,85.0
27.09,0.0,0.0,0.0,0.0,0.0,0.0,107.0,85.0
27.09,0.0,0.0,0.0,0.0,0.0,0.0,111.0,85.0
27.05,0.0,0.0,0.0,0.0,0.0,0.0,110.0,85.0
26.99,0.0,0.0,0.0,0.0,0.0,0.0,110.0,85.0
26.99,0.0,0.0,0.0,0.0,0.0,0.0,108.0,85.0
26.91,0.0,0.0,0.0,0.0,0.0,0.0,107.0,85.0
26.87,0.0,0.0,0.0,0.0,0.0,0.0,115.0,85.0
26.83,0.0,0.0,0.0,0.0,0.0,0.0,112.0,85.0
26.83,0.0,0.0,0.0,0.0,0.0,0.0,110.0,85.0
26.79,0.0,0.0,0.0,0.0,0.0,0.0,119.0,85.0
26.77,0.0,0.0,0.0,0.0,0.0,0.0,128.0,85.0
26.73,0.0,0.0,0.0,0.0,0.0,0.0,129.0,85.0
26.77,0.0,0.0,0.0,0.0,0.0,0.0,137.0,85.0
26.67,0.0,0.0,0.0,0.0,0.0,0.0,134.0,85.0
26.67,0.0,0.0,0.0,0.0,0.0,0.0,137.0,85.0
26.77,0.0,0.0,0.0,0.0,0.0,0.0,143.0,85.0
26.65,0.0,0.0,0.0,0.0,0.0,0.0,139.0,85.0
26.71,0.0,0.0,0.0,0.0,0.0,0.0,143.0,85.0
26.61,0.0,0.0,0.0,0.0,0.0,0.0,140.0,85.0
26.59,0.0,0.0,0.0,0.0,0.0,0.0,135.0,85.0
26.59,0.0,0.0,0.0,0.0,0.0,0.0,142.0,85.0
26.61,0.0,0.0,0.0,0.0,0.0,0.0,144.0,85.0
26.59,0.0,0.0,0.0,0.0,0.0,0.0,142.0,85.0
26.55,0.0,0.0,0.0,0.0,0.0,0.0,151.0,85.0
26.61,0.0,0.0,0.0,0.0,0.0,0.0,147.0,85.0
26.53,0.0,0.0,0.0,0.0,0.0,0.0,145.0,85.0
26.53,0.0,0.0,0.0,0.0,0.0,0.0,145.0,85.0
26.47,0.0,0.0,0.0,0.0,0.0,0.0,150.0,85.0
26.43,0.0,0.0,0.0,0.0,0.0,0.0,147.0,85.0
26.37,0.0,0.0,0.0,0.0,0.0,0.0,145.0,85.0
26.43,0.0,0.0,0.0,0.0,0.0,0.0,150.0,85.0
26.43,0.0,0.0,0.0,0.0,0.0,0.0,147.0,85.0
26.43,0.0,0.0,0.0,0.0,0.0,0.0,156.0,85.0
26.43,0.0,0.0,0.0,0.0,0.0,0.0,150.0,85.0
26.41,0.0,0.0,0.0,0.0,0.0,0.0,151.0,85.0
26.37,0.0,0.0,0.0,0.0,0.0,0.0,151.0,85.0
26.41,0.0,0.0,0.0,0.0,0.0,0.0,147.0,85.0
26.41,0.0,0.0,0.0,0.0,0.0,0.0,158.0,85.0
26.43,0.0,0.0,0.0,0.0,0.0,0.0,150.0,85.0
26.43,0.0,0.0,0.0,0.0,0.0,0.0,150.0,85.0
26.43,0.0,0.0,0.0,0.0,0.0,0.0,150.0,85.0
26.29,0.0,0.0,0.0,0.0,0.0,0.0,151.0,85.0
26.35,0.0,0.0,0.0,0.0,0.0,0.0,150.0,85.0
26.29,0.0,0.0,0.0,0.0,0.0,0.0,153.0,85.0
26.29,0.0,0.0,0.0,0.0,0.0,0.0,152.0,85.0
26.29,0.0,0.0,0.0,0.0,0.0,0.0,150.0,85.0
26.29,0.0,0.0,0.0,0.0,0.0,0.0,156.0,85.0
26.29,0.0,0.0,0.0,0.0,0.0,0.0,152.0,85.0
26.29,0.0,0.0,0.0,0.0,0.0,0.0,155.0,85.0
26.29,0.0,0.0,0.0,0.0,0.0,0.0,153.0,85.0
26.29,0.0,0.0,0.0,0.0,0.0,0.0,153.0,85.0
26.37,0.0,0.0,0.0,0.0,0.0,0.0,160.0,85.0
26.37,0.0,0.0,0.0,0.0,0.0,0.0,164.0,85.0
26.37,0.0,0.0,0.0,0.0,0.0,0.0,160.0,85.0
26.35,0.0,0.0,0.0,0.0,0.0,0.0,160.0,85.0
26.35,0.0,0.0,0.0,0.0,0.0,0.0,163.0,85.0
26.35,0.0,0.0,0.0,0.0,0.0,0.0,168.0,85.0
26.29,0.0,0.0,0.0,0.0,0.0,0.0,161.0,85.0
26.31,0.0,0.0,0.0,0.0,0.0,0.0,161.0,85.0
26.37,0.0,0.0,0.0,0.0,0.0,0.0,160.0,85.0
26.29,0.0,0.0,0.0,0.0,0.0,0.0,160.0,85.0
26.23,0.0,0.0,0.0,0.0,0.0,0.0,43.0,15.0
26.43,0.0,0.0,0.0,0.0,0.0,0.0,0.0,15.0
25.93,0.0,0.0,0.0,0.0,0.0,0.0,0.0,15.0
26.09,0.0,0.0,0.0,0.0,0.0,0.0,0.0,15.0
26.27,0.0,0.0,0.0,0.0,0.0,0.0,0.0,15.0
27.95,0.0,0.0,0.0,0.0,0.0,0.0,0.0,15.0
27.31,0.0,0.0,0.0,0.0,0.0,0.0,0.0,15.0
25.93,0.0,0.0,0.0,0.0,0.0,0.0,0.0,15.0
25.99,0.0,0.0,0.0,0.0,0.0,0.0,0.0,15.0
25.97,0.0,0.0,0.0,0.0,0.0,0.0,0.0,15.0
26.05,0.0,0.0,0.0,0.0,0.0,0.0,0.0,15.0
25.97,0.0,0.0,0.0,0.0,0.0,0.0,0.0,15.0
26.03,0.0,0.0,0.0,0.0,0.0,0.0,0.0,15.0
26.09,0.0,0.0,0.0,0.0,0.0,0.0,0.0,15.0
26.05,0.0,0.0,0.0,0.0,0.0,0.0,0.0,15.0
26.03,0.0,0.0,0.0,0.0,0.0,0.0,0.0,15.0
26.09,0.0,0.0,0.0,0.0,0.0,0.0,0.0,15.0
26.03,0.0,0.0,0.0,0.0,0.0,0.0,0.0,15.0
26.09,0.0,0.0,0.0,0.0,0.0,0.0,0.0,15.0
26.05,0.0,0.0,0.0,0.0,0.0,0.0,0.0,15.0
26.05,0.0,0.0,0.0,0.0,0.0,0.0,0.0,15.0
25.99,0.0,0.0,0.0,0.0,0.0,0.0,0.0,15.0
26.03,0.0,0.0,0.0,0.0,0.0,0.0,0.0,15.0
26.05,0.0,0.0,0.0,0.0,0.0,0.0,0.0,15.0
26.05,0.0,0.0,0.0,0.0,0.0,0.0,0.0,15.0
26.05,0.0,0.0,0.0,0.0,0.0,0.0,0.0,15.0
25.97,0.0,0.0,0.0,0.0,0.0,0.0,0.0,15.0
25.99,0.0,0.0,0.0,0.0,0.0,0.0,0.0,15.0
25.97,0.0,0.0,0.0,0.0,0.0,0.0,0.0,15.0
25.99,0.0,0.0,0.0,0.0,0.0,0.0,0.0,15.0
26.03,0.0,0.0,0.0,0.0,0.0,0.0,0.0,15.0
26.09,0.0,0.0,0.0,0.0,0.0,0.0,0.0,15.0
25.93,0.0,0.0,0.0,0.0,0.0,0.0,0.0,15.0
26.03,0.0,0.0,0.0,0.0,0.0,0.0,0.0,15.0
25.97,0.0,0.0,0.0,0.0,0.0,0.0,0.0,15.0
25.93,0.0,0.0,0.0,0.0,0.0,0.0,0.0,15.0
25.97,0.0,0.0,0.0,0.0,0.0,0.0,0.0,15.0
25.97,0.0,0.0,0.0,0.0,0.0,0.0,0.0,15.0
25.93,0.0,0.0,0.0,0.0,0.0,0.0,0.0,15.0
25.93,0.0,0.0,0.0,0.0,0.0,0.0,0.0,15.0
25.97,0.0,0.0,0.0,0.0,0.0,0.0,0.0,15.0
26.03,0.0,0.0,0.0,0.0,0.0,0.0,0.0,15.0
25.97,0.0,0.0,0.0,0.0,0.0,0.0,0.0,15.0
26.05,0.0,0.0,0.0,0.0,0.0,0.0,0.0,15.0
25.99,0.0,0.0,0.0,0.0,0.0,0.0,0.0,15.0
25.91,0.0,0.0,0.0,0.0,0.0,0.0,0.0,15.0
26.05,0.0,0.0,0.0,0.0,0.0,0.0,0.0,15.0
26.15,0.0,0.0,0.0,0.0,0.0,0.0,0.0,15.0
26.21,0.0,0.0,0.0,0.0,0.0,0.0,0.0,15.0
26.27,0.0,0.0,0.0,0.0,0.0,0.0,0.0,15.0
26.29,0.0,0.0,0.0,0.0,0.0,0.0,0.0,15.0
26.37,0.0,0.0,0.0,0.0,0.0,0.0,0.0,15.0
26.23,0.0,0.0,0.0,0.0,0.0,0.0,0.0,15.0
26.49,0.0,0.0,0.0,0.0,0.0,0.0,0.0,23.0
26.49,0.0,0.0,0.0,0.0,0.0,0.0,0.0,33.0
26.37,0.0,0.0,0.0,0.0,0.0,0.0,0.0,43.0
26.47,0.0,0.0,0.0,0.0,0.0,0.0,0.0,53.0
26.43,0.0,0.0,0.0,0.0,0.0,0.0,0.0,63.0
26.41,0.0,0.0,0.0,0.0,0.0,0.0,0.0,73.0
26.41,0.0,0.0,0.0,0.0,0.0,0.0,0.0,83.0
26.43,192.0,0.0,0.0,0.0,0.0,0.0,0.0,93.0
26.31,0.0,89.0,0.0,213.0,0.0,0.0,90.0,100.0
26.31,100.0,107.0,0.0,0.0,0.0,0.0,1134.0,100.0
26.41,0.0,109.0,0.0,0.0,0.0,0.0,1158.0,100.0
26.37,0.0,100.0,0.0,0.0,0.0,0.0,1187.0,100.0
26.37,0.0,94.0,0.0,0.0,0.0,0.0,1201.0,100.0
26.41,0.0,84.0,0.0,0.0,0.0,0.0,1130.0,100.0
26.37,0.0,93.0,0.0,0.0,0.0,0.0,1145.0,100.0
26.29,0.0,102.0,0.0,0.0,0.0,0.0,1162.0,100.0
26.31,0.0,94.0,0.0,0.0,0.0,0.0,1108.0,100.0
26.29,0.0,81.0,0.0,0.0,0.0,0.0,1082.0,100.0
26.31,0.0,65.0,0.0,0.0,0.0,0.0,1023.0,100.0
26.29,0.0,58.0,0.0,0.0,0.0,0.0,948.0,100.0
26.27,0.0,58.0,0.0,0.0,0.0,0.0,872.0,100.0
26.31,0.0,112.0,0.0,0.0,0.0,0.0,995.0,100.0
26.23,0.0,64.0,0.0,0.0,0.0,0.0,1001.0,100.0
26.37,0.0,108.0,0.0,0.0,0.0,0.0,988.0,100.0
26.37,0.0,109.0,54.0,0.0,0.0,0.0,994.0,100.0
26.41,0.0,102.0,0.0,0.0,0.0,0.0,1006.0,100.0
26.41,0.0,114.0,0.0,0.0,0.0,0.0,1028.0,100.0
26.47,0.0,112.0,0.0,0.0,0.0,0.0,1055.0,100.0
26.43,0.0,123.0,0.0,0.0,0.0,0.0,1053.0,100.0
26.37,0.0,123.0,0.0,0.0,0.0,0.0,1065.0,100.0
26.37,0.0,122.0,0.0,0.0,0.0,0.0,1064.0,100.0
26.41,0.0,160.0,0.0,0.0,0.0,0.0,1263.0,100.0
26.37,0.0,183.0,0.0,0.0,0.0,0.0,1344.0,100.0
26.41,0.0,179.0,0.0,0.0,0.0,0.0,1381.0,100.0
26.35,0.0,186.0,0.0,0.0,0.0,0.0,1394.0,100.0
26.37,0.0,208.0,0.0,0.0,0.0,0.0,1401.0,100.0
26.37,0.0,182.0,0.0,0.0,0.0,0.0,1409.0,100.0
26.41,0.0,185.0,0.0,0.0,0.0,0.0,1428.0,100.0
26.37,0.0,186.0,0.0,0.0,0.0,0.0,1447.0,100.0
26.37,0.0,181.0,0.0,0.0,0.0,0.0,1463.0,100.0
26.43,0.0,209.0,0.0,0.0,0.0,0.0,1466.0,100.0
26.37,0.0,267.0,0.0,0.0,0.0,0.0,1474.0,100.0
26.29,0.0,176.0,0.0,0.0,0.0,0.0,1484.0,100.0
26.43,0.0,504.0,0.0,0.0,0.0,0.0,1489.0,100.0
26.41,0.0,176.0,0.0,0.0,0.0,0.0,1499.0,100.0
26.35,0.0,176.0,0.0,0.0,0.0,0.0,1497.0,100.0
26.35,0.0,176.0,0.0,0.0,0.0,0.0,1504.0,100.0
26.37,0.0,173.0,0.0,0.0,0.0,0.0,1499.0,100.0
26.47,0.0,174.0,0.0,0.0,0.0,0.0,1493.0,100.0
26.43,0.0,0.0,0.0,0.0,0.0,0.0,1508.0,100.0
26.47,0.0,173.0,0.0,0.0,0.0,0.0,1505.0,100.0
26.35,0.0,113.0,0.0,0.0,0.0,0.0,1505.0,100.0
26.35,0.0,179.0,0.0,0.0,0.0,0.0,1511.0,100.0
26.29,0.0,176.0,0.0,0.0,0.0,0.0,1510.0,100.0
26.35,0.0,170.0,0.0,0.0,0.0,0.0,1510.0,100.0
26.37,0.0,181.0,0.0,0.0,0.0,0.0,1512.0,100.0
26.37,0.0,176.0,0.0,0.0,0.0,0.0,1512.0,100.0
26.37,0.0,176.0,0.0,0.0,0.0,0.0,1515.0,100.0
26.35,0.0,179.0,0.0,0.0,0.0,0.0,1512.0,100.0
26.35,0.0,165.0,0.0,0.0,0.0,0.0,1512.0,100.0
26.37,0.0,178.0,0.0,0.0,0.0,0.0,1507.0,100.0
26.37,0.0,178.0,0.0,0.0,0.0,0.0,1519.0,100.0
26.35,0.0,192.0,0.0,0.0,0.0,0.0,1516.0,100.0
26.41,0.0,185.0,0.0,0.0,0.0,0.0,1521.0,100.0
26.41,0.0,184.0,0.0,0.0,0.0,0.0,1521.0,100.0
26.37,0.0,179.0,0.0,0.0,0.0,0.0,1511.0,100.0
26.43,0.0,182.0,0.0,0.0,0.0,0.0,1522.0,100.0
26.37,0.0,182.0,0.0,0.0,0.0,0.0,1509.0,100.0
26.41,0.0,179.0,0.0,0.0,0.0,0.0,1518.0,100.0
26.41,0.0,178.0,0.0,0.0,0.0,0.0,1514.0,100.0
26.29,0.0,192.0,0.0,0.0,0.0,0.0,1519.0,100.0
26.43,0.0,157.0,0.0,0.0,0.0,0.0,1533.0,100.0
26.41,0.0,176.0,0.0,0.0,0.0,0.0,1515.0,100.0
26.29,0.0,186.0,0.0,0.0,0.0,0.0,1510.0,100.0
26.37,0.0,176.0,0.0,0.0,0.0,0.0,1518.0,100.0
26.35,0.0,272.0,0.0,0.0,0.0,0.0,1520.0,100.0
26.43,0.0,189.0,0.0,0.0,0.0,0.0,1524.0,100.0
26.41,0.0,87.0,0.0,0.0,0.0,0.0,1512.0,100.0
26.37,0.0,177.0,0.0,0.0,0.0,0.0,1525.0,100.0
26.43,0.0,178.0,0.0,0.0,0.0,0.0,1519.0,100.0
26.37,0.0,180.0,0.0,0.0,0.0,0.0,1531.0,100.0
26.37,0.0,185.0,0.0,0.0,0.0,0.0,1529.0,100.0
26.31,0.0,182.0,0.0,0.0,0.0,0.0,1533.0,100.0
26.37,0.0,167.0,0.0,0.0,0.0,0.0,1521.0,100.0
26.41,0.0,189.0,0.0,0.0,0.0,0.0,1526.0,100.0
26.37,0.0,191.0,0.0,0.0,0.0,0.0,1528.0,100.0
26.43,0.0,188.0,0.0,0.0,0.0,0.0,1525.0,100.0
26.43,0.0,186.0,0.0,0.0,0.0,0.0,1527.0,100.0
26.35,0.0,179.0,0.0,0.0,0.0,0.0,1524.0,100.0
26.37,0.0,182.0,0.0,0.0,0.0,0.0,1523.0,100.0
26.35,0.0,184.0,0.0,0.0,0.0,0.0,1521.0,100.0
26.37,0.0,184.0,0.0,0.0,0.0,0.0,1522.0,100.0
26.35,0.0,192.0,0.0,0.0,0.0,0.0,1521.0,15.0
26.23,0.0,0.0,0.0,0.0,0.0,0.0,0.0,15.0
25.97,0.0,0.0,0.0,0.0,0.0,0.0,0.0,15.0
25.93,0.0,0.0,0.0,0.0,0.0,0.0,0.0,15.0
25.97,0.0,0.0,0.0,0.0,0.0,0.0,0.0,15.0
26.15,0.0,0.0,0.0,0.0,0.0,0.0,0.0,15.0
27.05,0.0,0.0,0.0,0.0,0.0,0.0,0.0,15.0
27.23,0.0,0.0,0.0,0.0,0.0,0.0,0.0,15.0
27.15,0.0,0.0,0.0,0.0,0.0,0.0,0.0,15.0
26.91,0.0,0.0,0.0,0.0,0.0,0.0,0.0,15.0
25.97,0.0,0.0,0.0,0.0,0.0,0.0,0.0,15.0
25.97,0.0,0.0,0.0,0.0,0.0,0.0,0.0,15.0
25.97,0.0,0.0,0.0,0.0,0.0,0.0,0.0,15.0
25.93,0.0,0.0,0.0,0.0,0.0,0.0,0.0,15.0
25.97,0.0,0.0,0.0,0.0,0.0,0.0,0.0,15.0
25.93,0.0,0.0,0.0,0.0,0.0,0.0,0.0,15.0
25.87,0.0,0.0,0.0,0.0,0.0,0.0,0.0,15.0
25.97,0.0,0.0,0.0,0.0,0.0,0.0,0.0,15.0
25.93,0.0,0.0,0.0,0.0,0.0,0.0,0.0,15.0
25.99,0.0,0.0,0.0,0.0,0.0,0.0,0.0,15.0
26.03,0.0,0.0,0.0,0.0,0.0,0.0,0.0,15.0
26.03,0.0,0.0,0.0,0.0,0.0,0.0,0.0,15.0
25.99,0.0,0.0,0.0,0.0,0.0,0.0,0.0,15.0
26.03,0.0,0.0,0.0,0.0,0.0,0.0,0.0,15.0
25.97,0.0,0.0,0.0,0.0,0.0,0.0,0.0,15.0
26.03,0.0,0.0,0.0,16.0,0.0,0.0,0.0,15.0
26.03,0.0,0.0,0.0,0.0,0.0,0.0,0.0,15.0
26.03,0.0,0.0,0.0,0.0,0.0,0.0,0.0,15.0
26.09,0.0,0.0,0.0,0.0,0.0,0.0,0.0,15.0
26.03,0.0,0.0,0.0,0.0,0.0,0.0,0.0,15.0
25.99,0.0,0.0,0.0,0.0,0.0,0.0,0.0,15.0
26.05,0.0,0.0,0.0,0.0,0.0,0.0,0.0,15.0
26.03,0.0,0.0,0.0,0.0,0.0,0.0,0.0,15.0
26.05,0.0,0.0,0.0,0.0,0.0,0.0,0.0,15.0
26.05,0.0,0.0,0.0,0.0,0.0,0.0,0.0,15.0
26.15,0.0,0.0,0.0,0.0,0.0,0.0,0.0,15.0
26.11,0.0,0.0,0.0,0.0,0.0,0.0,0.0,15.0
26.03,0.0,0.0,0.0,0.0,0.0,0.0,0.0,15.0
26.11,0.0,0.0,0.0,0.0,0.0,0.0,0.0,15.0
26.11,0.0,0.0,0.0,0.0,0.0,0.0,0.0,15.0
26.09,0.0,0.0,0.0,0.0,0.0,0.0,0.0,15.0
26.11,0.0,0.0,0.0,0.0,0.0,0.0,0.0,15.0
26.11,0.0,0.0,0.0,0.0,0.0,0.0,0.0,15.0
26.15,0.0,0.0,0.0,0.0,0.0,0.0,0.0,15.0
26.35,0.0,0.0,0.0,0.0,0.0,0.0,0.0,15.0
26.91,0.0,0.0,0.0,0.0,0.0,0.0,0.0,15.0
28.13,0.0,0.0,0.0,0.0,0.0,0.0,0.0,15.0
29.63,0.0,0.0,0.0,0.0,0.0,0.0,0.0,15.0
31.91,0.0,0.0,0.0,0.0,0.0,0.0,0.0,15.0
35.45,0.0,0.0,0.0,0.0,0.0,0.0,0.0,15.0
35.99,0.0,0.0,0.0,0.0,0.0,0.0,0.0,15.0
36.39,0.0,0.0,0.0,0.0,0.0,0.0,0.0,15.0
36.21,0.0,0.0,0.0,0.0,0.0,0.0,0.0,15.0
36.25,0.0,0.0,0.0,0.0,0.0,0.0,0.0,15.0
36.25,0.0,0.0,0.0,0.0,0.0,0.0,0.0,19.0
36.21,0.0,0.0,0.0,0.0,0.0,0.0,0.0,29.0
36.29,0.0,0.0,0.0,0.0,0.0,0.0,0.0,38.0
36.07,0.0,0.0,0.0,0.0,0.0,0.0,0.0,48.0
36.33,0.0,0.0,0.0,0.0,0.0,0.0,0.0,57.0
36.41,0.0,0.0,0.0,0.0,0.0,0.0,292.0,66.0
36.37,0.0,554.0,0.0,0.0,0.0,0.0,1813.0,75.0
36.31,0.0,624.0,0.0,0.0,1.0,0.0,2135.0,86.0
36.33,0.0,675.0,0.0,0.0,64.0,0.0,2190.0,95.0
36.31,0.0,704.0,0.0,0.0,94.0,0.0,2248.0,100.0
36.23,0.0,721.0,0.0,0.0,113.0,0.0,2259.0,100.0
36.21,0.0,720.0,0.0,0.0,97.0,0.0,2300.0,100.0
36.23,0.0,722.0,0.0,0.0,650.0,0.0,2291.0,100.0
36.17,0.0,657.0,0.0,0.0,34.0,0.0,2197.0,100.0
36.25,0.0,724.0,0.0,0.0,29.0,0.0,2192.0,100.0
36.23,0.0,666.0,0.0,0.0,37.0,0.0,2214.0,100.0
36.23,0.0,666.0,0.0,0.0,17.0,0.0,2205.0,100.0
36.23,0.0,602.0,0.0,0.0,8.0,0.0,2030.0,100.0
36.25,0.0,636.0,0.0,0.0,54.0,0.0,1984.0,100.0
36.33,0.0,641.0,0.0,0.0,59.0,0.0,1970.0,100.0
36.33,0.0,655.0,0.0,0.0,99.0,0.0,1934.0,100.0
36.23,0.0,685.0,0.0,0.0,144.0,0.0,1935.0,100.0
36.25,0.0,683.0,0.0,0.0,0.0,0.0,1959.0,100.0
36.29,0.0,687.0,0.0,0.0,153.0,0.0,1973.0,100.0
36.29,0.0,688.0,0.0,0.0,161.0,416.0,1980.0,100.0
36.33,0.0,691.0,0.0,0.0,151.0,0.0,1992.0,100.0
36.37,0.0,682.0,0.0,0.0,140.0,0.0,1987.0,100.0
36.39,0.0,671.0,0.0,0.0,151.0,0.0,2018.0,100.0
36.41,0.0,682.0,0.0,0.0,154.0,0.0,2017.0,100.0
36.39,0.0,693.0,0.0,0.0,151.0,0.0,2031.0,100.0
36.37,0.0,682.0,0.0,0.0,128.0,0.0,2012.0,100.0
36.37,0.0,687.0,0.0,0.0,66.0,0.0,2018.0,100.0
36.37,0.0,690.0,0.0,0.0,95.0,0.0,1980.0,100.0
36.31,0.0,699.0,0.0,0.0,97.0,0.0,2007.0,100.0
36.37,0.0,686.0,0.0,0.0,44.0,0.0,2023.0,100.0
36.25,0.0,686.0,0.0,0.0,69.0,0.0,2014.0,100.0
36.37,0.0,651.0,0.0,0.0,59.0,0.0,2049.0,100.0
36.39,0.0,612.0,0.0,0.0,40.0,0.0,2070.0,100.0
36.31,0.0,606.0,0.0,0.0,5.0,0.0,2094.0,100.0
36.29,0.0,528.0,0.0,0.0,0.0,0.0,2159.0,100.0
36.25,0.0,478.0,0.0,0.0,0.0,0.0,2217.0,100.0
36.29,0.0,410.0,0.0,0.0,0.0,0.0,2289.0,100.0
36.23,0.0,370.0,0.0,0.0,0.0,0.0,2288.0,100.0
36.25,0.0,333.0,0.0,0.0,0.0,0.0,2257.0,100.0
36.21,0.0,347.0,0.0,0.0,0.0,32.0,2259.0,100.0
36.31,0.0,352.0,0.0,0.0,0.0,0.0,2271.0,100.0
36.25,0.0,346.0,0.0,0.0,0.0,0.0,2285.0,100.0
36.25,0.0,131.0,0.0,0.0,0.0,0.0,2290.0,100.0
36.31,0.0,352.0,0.0,0.0,0.0,0.0,2294.0,100.0
36.29,0.0,351.0,0.0,0.0,0.0,0.0,2289.0,100.0
36.25,0.0,346.0,0.0,0.0,0.0,0.0,2291.0,100.0
36.23,0.0,355.0,0.0,0.0,0.0,0.0,2295.0,100.0
36.17,0.0,354.0,0.0,0.0,0.0,0.0,2297.0,100.0
36.17,0.0,352.0,0.0,0.0,0.0,0.0,2302.0,100.0
36.21,0.0,361.0,0.0,0.0,0.0,0.0,2304.0,100.0
36.17,0.0,352.0,0.0,0.0,0.0,0.0,2299.0,100.0
36.29,0.0,365.0,0.0,0.0,0.0,0.0,2302.0,100.0
36.25,0.0,358.0,0.0,0.0,0.0,0.0,2302.0,100.0
36.31,0.0,307.0,0.0,0.0,0.0,0.0,2306.0,100.0
36.29,0.0,352.0,0.0,0.0,0.0,0.0,2304.0,100.0
36.31,0.0,358.0,0.0,0.0,0.0,0.0,2302.0,100.0
36.31,0.0,360.0,0.0,0.0,0.0,0.0,2311.0,100.0
36.37,0.0,357.0,0.0,0.0,0.0,0.0,2300.0,100.0
36.29,0.0,341.0,0.0,0.0,0.0,0.0,2296.0,100.0
36.31,0.0,362.0,0.0,0.0,0.0,0.0,2302.0,100.0
36.33,0.0,365.0,0.0,0.0,0.0,0.0,2302.0,100.0
36.31,0.0,377.0,0.0,0.0,0.0,0.0,2302.0,100.0
36.33,0.0,361.0,0.0,0.0,0.0,0.0,2303.0,100.0
36.33,0.0,376.0,0.0,0.0,0.0,0.0,2310.0,100.0
36.33,0.0,365.0,0.0,0.0,0.0,0.0,2311.0,100.0
36.37,0.0,358.0,0.0,0.0,0.0,0.0,2313.0,100.0
36.37,0.0,368.0,0.0,0.0,0.0,0.0,2308.0,100.0
36.31,0.0,363.0,0.0,0.0,0.0,0.0,2313.0,100.0
36.37,0.0,363.0,0.0,0.0,19.0,0.0,2319.0,100.0
36.37,0.0,367.0,0.0,0.0,0.0,0.0,2307.0,100.0
36.37,0.0,365.0,0.0,0.0,0.0,0.0,2312.0,100.0
36.37,0.0,385.0,0.0,0.0,0.0,0.0,2311.0,100.0
36.37,0.0,367.0,0.0,0.0,0.0,0.0,2321.0,100.0
36.41,0.0,368.0,0.0,0.0,0.0,0.0,2317.0,100.0
36.37,0.0,365.0,0.0,0.0,0.0,0.0,2330.0,100.0
36.39,0.0,371.0,0.0,0.0,0.0,0.0,2327.0,100.0
36.39,0.0,362.0,0.0,0.0,0.0,0.0,2329.0,100.0
36.39,0.0,368.0,0.0,0.0,0.0,0.0,2330.0,100.0
36.45,0.0,368.0,0.0,0.0,0.0,0.0,2328.0,100.0
36.49,0.0,368.0,0.0,0.0,112.0,0.0,2326.0,100.0
36.41,0.0,368.0,0.0,0.0,0.0,0.0,2323.0,100.0
36.41,0.0,395.0,0.0,0.0,0.0,0.0,2330.0,100.0
36.49,0.0,370.0,0.0,0.0,0.0,0.0,2330.0,100.0
36.37,0.0,369.0,0.0,0.0,0.0,0.0,2328.0,100.0
36.39,0.0,369.0,0.0,0.0,0.0,0.0,2340.0,100.0
36.41,0.0,371.0,0.0,0.0,0.0,0.0,2332.0,100.0
36.25,0.0,0.0,0.0,0.0,0.0,0.0,1047.0,15.0
35.97,0.0,0.0,0.0,0.0,0.0,0.0,14.0,15.0
28.07,0.0,0.0,0.0,0.0,0.0,0.0,0.0,15.0
26.91,0.0,0.0,0.0,0.0,0.0,0.0,0.0,15.0
26.87,0.0,0.0,0.0,0.0,0.0,0.0,0.0,15.0
26.71,0.0,0.0,0.0,0.0,0.0,0.0,0.0,15.0
26.77,0.0,0.0,0.0,0.0,0.0,0.0,0.0,15.0
26.59,0.0,0.0,0.0,0.0,0.0,0.0,0.0,15.0
26.67,0.0,0.0,0.0,0.0,0.0,0.0,0.0,15.0
26.59,0.0,0.0,0.0,0.0,0.0,0.0,0.0,15.0
26.49,0.0,0.0,0.0,0.0,0.0,0.0,0.0,15.0
26.55,0.0,0.0,0.0,0.0,0.0,0.0,0.0,15.0
26.49,0.0,0.0,0.0,0.0,0.0,0.0,0.0,15.0
26.53,0.0,0.0,0.0,0.0,0.0,0.0,0.0,15.0
26.53,0.0,0.0,0.0,0.0,0.0,0.0,0.0,15.0
26.55,0.0,0.0,0.0,0.0,0.0,0.0,0.0,15.0
26.49,22.0,0.0,0.0,0.0,0.0,0.0,0.0,15.0
26.59,0.0,0.0,0.0,0.0,0.0,0.0,0.0,15.0
26.49,0.0,0.0,0.0,0.0,0.0,0.0,0.0,15.0
26.49,0.0,0.0,0.0,0.0,0.0,0.0,0.0,15.0
26.47,0.0,0.0,0.0,0.0,0.0,0.0,0.0,15.0
26.17,0.0,0.0,0.0,0.0,0.0,0.0,0.0,15.0
26.21,0.0,0.0,0.0,0.0,0.0,0.0,0.0,15.0
26.15,0.0,0.0,0.0,0.0,0.0,0.0,0.0,15.0
26.17,0.0,0.0,0.0,0.0,0.0,0.0,0.0,15.0
26.11,0.0,0.0,0.0,0.0,0.0,0.0,0.0,15.0
26.15,0.0,0.0,0.0,0.0,0.0,0.0,0.0,15.0
26.09,0.0,0.0,0.0,0.0,0.0,0.0,0.0,15.0
26.15,0.0,0.0,0.0,0.0,0.0,0.0,0.0,15.0
26.09,0.0,0.0,0.0,0.0,0.0,0.0,0.0,15.0
26.11,0.0,0.0,0.0,0.0,0.0,0.0,0.0,15.0
26.21,0.0,0.0,0.0,0.0,0.0,0.0,0.0,15.0
26.15,0.0,0.0,0.0,0.0,0.0,0.0,0.0,15.0
26.17,0.0,0.0,0.0,0.0,0.0,0.0,0.0,15.0
26.15,0.0,0.0,0.0,0.0,0.0,0.0,0.0,15.0
26.23,0.0,0.0,0.0,0.0,0.0,0.0,0.0,15.0
26.21,0.0,0.0,0.0,0.0,0.0,0.0,0.0,15.0
26.17,0.0,0.0,0.0,0.0,0.0,0.0,0.0,15.0
26.09,0.0,0.0,0.0,0.0,0.0,0.0,0.0,15.0
26.17,0.0,0.0,0.0,0.0,0.0,0.0,0.0,15.0
26.21,0.0,0.0,0.0,0.0,0.0,0.0,0.0,15.0
26.11,0.0,0.0,0.0,0.0,0.0,0.0,0.0,15.0
26.09,0.0,0.0,0.0,0.0,0.0,0.0,0.0,15.0
26.15,0.0,0.0,0.0,0.0,0.0,0.0,0.0,15.0
26.15,0.0,0.0,0.0,0.0,0.0,0.0,0.0,15.0
26.11,0.0,0.0,0.0,0.0,0.0,0.0,0.0,15.0
26.35,0.0,0.0,0.0,0.0,0.0,0.0,0.0,15.0
26.61,0.0,0.0,0.0,0.0,0.0,0.0,0.0,15.0
26.85,0.0,0.0,0.0,0.0,0.0,0.0,0.0,15.0
26.93,0.0,0.0,0.0,0.0,0.0,0.0,0.0,15.0
26.91,0.0,0.0,0.0,0.0,0.0,0.0,0.0,15.0
26.91,0.0,0.0,0.0,0.0,0.0,0.0,0.0,15.0
27.05,0.0,0.0,0.0,0.0,0.0,0.0,0.0,20.0
26.99,0.0,0.0,0.0,0.0,0.0,0.0,0.0,30.0
26.97,0.0,0.0,0.0,0.0,0.0,0.0,0.0,41.0
26.99,0.0,0.0,0.0,0.0,0.0,0.0,0.0,51.0
26.99,0.0,0.0,0.0,0.0,0.0,0.0,0.0,62.0
26.91,0.0,0.0,0.0,0.0,0.0,0.0,0.0,71.0
26.87,0.0,0.0,0.0,0.0,0.0,0.0,0.0,83.0
26.87,0.0,0.0,0.0,0.0,0.0,0.0,0.0,92.0
26.85,0.0,0.0,0.0,0.0,0.0,0.0,0.0,100.0
26.85,0.0,0.0,0.0,0.0,0.0,0.0,0.0,100.0
26.79,0.0,0.0,0.0,0.0,0.0,0.0,0.0,100.0
26.83,0.0,0.0,0.0,0.0,0.0,0.0,0.0,100.0
26.73,0.0,0.0,0.0,0.0,0.0,32.0,0.0,100.0
26.77,0.0,0.0,0.0,0.0,128.0,61.0,0.0,100.0
26.79,0.0,0.0,0.0,0.0,0.0,93.0,0.0,100.0
26.79,0.0,0.0,0.0,0.0,0.0,75.0,0.0,100.0
26.79,0.0,0.0,0.0,0.0,0.0,78.0,0.0,100.0
26.77,0.0,0.0,0.0,0.0,0.0,87.0,0.0,100.0
26.83,0.0,0.0,0.0,0.0,0.0,101.0,0.0,100.0
26.73,0.0,0.0,0.0,0.0,0.0,90.0,0.0,100.0
26.83,0.0,0.0,0.0,0.0,0.0,132.0,0.0,100.0
26.77,0.0,0.0,0.0,0.0,0.0,91.0,0.0,100.0
26.77,0.0,0.0,0.0,0.0,0.0,100.0,0.0,100.0
26.77,0.0,0.0,0.0,0.0,0.0,96.0,0.0,100.0
26.85,0.0,0.0,0.0,0.0,0.0,97.0,0.0,100.0
26.77,0.0,0.0,3.0,0.0,0.0,99.0,0.0,100.0
26.79,0.0,0.0,16.0,0.0,0.0,166.0,0.0,100.0
26.83,0.0,0.0,32.0,0.0,0.0,117.0,0.0,100.0
26.85,0.0,0.0,71.0,0.0,0.0,117.0,0.0,100.0
26.79,0.0,0.0,61.0,0.0,0.0,126.0,0.0,100.0
26.77,0.0,0.0,0.0,0.0,0.0,133.0,0.0,100.0
26.87,0.0,0.0,71.0,0.0,0.0,133.0,0.0,100.0
26.83,0.0,418.0,75.0,0.0,0.0,141.0,0.0,100.0
26.83,0.0,0.0,55.0,0.0,0.0,136.0,0.0,100.0
26.73,0.0,0.0,87.0,0.0,0.0,149.0,0.0,100.0
26.79,0.0,0.0,81.0,0.0,0.0,161.0,0.0,100.0
26.71,0.0,0.0,80.0,0.0,0.0,160.0,0.0,100.0
26.77,0.0,0.0,86.0,0.0,0.0,162.0,0.0,100.0
26.71,0.0,0.0,80.0,0.0,0.0,160.0,0.0,100.0
26.79,0.0,40.0,95.0,0.0,0.0,169.0,0.0,100.0
26.77,0.0,0.0,99.0,0.0,0.0,165.0,0.0,100.0
26.71,0.0,0.0,110.0,0.0,0.0,164.0,0.0,100.0
26.67,0.0,0.0,112.0,0.0,0.0,170.0,0.0,100.0
26.71,0.0,0.0,110.0,0.0,0.0,165.0,0.0,100.0
26.67,0.0,0.0,109.0,0.0,0.0,170.0,0.0,100.0
26.65,0.0,0.0,100.0,0.0,0.0,172.0,0.0,100.0
26.73,0.0,0.0,89.0,0.0,0.0,155.0,0.0,100.0
26.73,0.0,0.0,67.0,0.0,0.0,48.0,0.0,100.0
26.71,0.0,0.0,90.0,0.0,0.0,112.0,0.0,100.0
26.73,0.0,0.0,89.0,0.0,0.0,141.0,0.0,100.0
26.73,0.0,0.0,89.0,0.0,0.0,125.0,0.0,100.0
26.73,0.0,0.0,93.0,0.0,0.0,112.0,0.0,100.0
26.71,0.0,0.0,80.0,0.0,0.0,121.0,0.0,100.0
26.71,0.0,0.0,69.0,0.0,0.0,128.0,0.0,100.0
26.73,0.0,0.0,96.0,0.0,0.0,121.0,0.0,100.0
26.67,0.0,0.0,90.0,0.0,0.0,128.0,0.0,100.0
26.67,0.0,0.0,96.0,0.0,0.0,128.0,0.0,100.0
26.61,0.0,0.0,100.0,0.0,0.0,132.0,0.0,100.0
26.65,0.0,0.0,64.0,0.0,0.0,126.0,0.0,100.0
26.65,0.0,0.0,102.0,0.0,0.0,137.0,0.0,100.0
26.65,0.0,0.0,101.0,0.0,0.0,70.0,0.0,100.0
26.61,0.0,0.0,101.0,0.0,0.0,122.0,0.0,100.0
26.59,0.0,0.0,98.0,0.0,0.0,128.0,0.0,100.0
26.67,0.0,0.0,88.0,0.0,0.0,128.0,0.0,100.0
26.61,0.0,0.0,102.0,0.0,0.0,137.0,0.0,100.0
26.61,0.0,0.0,100.0,0.0,0.0,133.0,0.0,100.0
26.49,0.0,0.0,96.0,0.0,0.0,132.0,0.0,100.0
26.53,0.0,0.0,104.0,0.0,0.0,128.0,0.0,100.0
26.53,0.0,0.0,99.0,0.0,0.0,137.0,0.0,100.0
26.49,128.0,0.0,101.0,0.0,0.0,0.0,0.0,100.0
26.53,0.0,0.0,99.0,0.0,0.0,144.0,0.0,100.0
26.61,0.0,0.0,100.0,0.0,0.0,96.0,0.0,100.0
26.53,0.0,0.0,87.0,0.0,0.0,138.0,0.0,100.0
26.49,0.0,0.0,106.0,0.0,0.0,133.0,0.0,100.0
26.59,0.0,0.0,80.0,0.0,0.0,203.0,0.0,100.0
26.59,0.0,0.0,83.0,0.0,0.0,144.0,0.0,100.0
26.59,0.0,0.0,103.0,0.0,0.0,141.0,0.0,100.0
26.55,0.0,0.0,107.0,0.0,0.0,145.0,0.0,100.0
26.49,0.0,0.0,108.0,0.0,0.0,106.0,0.0,100.0
26.49,0.0,0.0,102.0,0.0,0.0,140.0,0.0,100.0
26.53,0.0,0.0,112.0,0.0,0.0,140.0,0.0,100.0
26.53,0.0,0.0,107.0,0.0,0.0,144.0,0.0,100.0
26.53,0.0,0.0,101.0,0.0,0.0,144.0,0.0,100.0
26.49,0.0,0.0,110.0,0.0,0.0,112.0,0.0,100.0
26.49,0.0,0.0,108.0,0.0,0.0,154.0,0.0,100.0
26.47,0.0,0.0,102.0,0.0,0.0,141.0,0.0,100.0
26.47,0.0,0.0,105.0,0.0,0.0,150.0,0.0,100.0
26.49,0.0,0.0,102.0,0.0,0.0,141.0,0.0,100.0
26.47,0.0,0.0,112.0,0.0,0.0,148.0,0.0,100.0
26.47,0.0,0.0,102.0,0.0,0.0,141.0,0.0,100.0
26.47,0.0,0.0,107.0,0.0,0.0,144.0,0.0,100.0
26.47,0.0,0.0,107.0,0.0,0.0,146.0,0.0,100.0
26.49,0.0,0.0,0.0,0.0,0.0,0.0,0.0,15.0
26.03,0.0,0.0,0.0,0.0,0.0,0.0,0.0,15.0
26.09,0.0,0.0,0.0,0.0,0.0,0.0,0.0,15.0
26.03,0.0,0.0,0.0,0.0,0.0,0.0,0.0,15.0
26.61,0.0,0.0,0.0,0.0,0.0,0.0,0.0,15.0
27.17,0.0,0.0,0.0,0.0,0.0,0.0,0.0,15.0
27.11,0.0,0.0,0.0,0.0,0.0,0.0,0.0,15.0
25.99,0.0,0.0,0.0,0.0,0.0,0.0,0.0,15.0
25.91,0.0,0.0,0.0,0.0,0.0,0.0,0.0,15.0
25.93,0.0,0.0,0.0,0.0,0.0,0.0,0.0,15.0
26.03,0.0,0.0,0.0,0.0,0.0,0.0,0.0,15.0
25.99,0.0,0.0,0.0,0.0,0.0,0.0,0.0,15.0
26.05,0.0,0.0,0.0,0.0,0.0,0.0,0.0,15.0
26.11,0.0,0.0,0.0,0.0,0.0,0.0,0.0,15.0
26.11,0.0,0.0,0.0,0.0,0.0,0.0,0.0,15.0
26.15,0.0,0.0,0.0,0.0,0.0,0.0,0.0,15.0
26.09,0.0,0.0,0.0,0.0,0.0,0.0,0.0,15.0
26.15,0.0,0.0,0.0,0.0,0.0,0.0,0.0,15.0
26.11,0.0,0.0,0.0,0.0,0.0,0.0,0.0,15.0
26.17,0.0,0.0,0.0,0.0,0.0,0.0,0.0,15.0
26.15,0.0,0.0,0.0,0.0,0.0,0.0,0.0,15.0
26.11,0.0,0.0,0.0,0.0,0.0,0.0,0.0,15.0
26.11,0.0,0.0,0.0,0.0,0.0,0.0,0.0,15.0
26.15,0.0,0.0,0.0,0.0,0.0,0.0,0.0,15.0
26.11,0.0,0.0,0.0,0.0,0.0,0.0,0.0,15.0
26.05,0.0,0.0,0.0,0.0,0.0,0.0,0.0,15.0
26.05,0.0,0.0,0.0,0.0,0.0,0.0,0.0,15.0
26.11,0.0,0.0,0.0,0.0,0.0,0.0,0.0,15.0
26.11,0.0,0.0,0.0,0.0,0.0,0.0,0.0,15.0
26.11,0.0,0.0,0.0,0.0,0.0,0.0,0.0,15.0
26.11,0.0,0.0,0.0,0.0,0.0,0.0,0.0,15.0
26.05,0.0,0.0,0.0,0.0,0.0,0.0,0.0,15.0
26.15,0.0,0.0,0.0,0.0,0.0,0.0,0.0,15.0
26.15,0.0,0.0,0.0,0.0,0.0,0.0,0.0,15.0
26.17,0.0,0.0,0.0,0.0,0.0,0.0,0.0,15.0
26.15,0.0,0.0,0.0,0.0,0.0,0.0,0.0,15.0
26.11,0.0,0.0,0.0,0.0,0.0,0.0,0.0,15.0
26.11,0.0,0.0,0.0,0.0,0.0,0.0,0.0,15.0
26.11,0.0,0.0,0.0,0.0,0.0,0.0,0.0,15.0
26.09,0.0,0.0,0.0,0.0,0.0,0.0,0.0,15.0
26.09,0.0,0.0,0.0,0.0,0.0,0.0,0.0,15.0
26.05,0.0,0.0,0.0,0.0,0.0,0.0,0.0,15.0
26.09,0.0,0.0,0.0,0.0,0.0,0.0,0.0,15.0
26.09,0.0,0.0,0.0,0.0,0.0,0.0,0.0,15.0
26.11,0.0,0.0,0.0,0.0,0.0,0.0,0.0,15.0
25.97,0.0,0.0,0.0,0.0,0.0,0.0,0.0,15.0
25.87,0.0,0.0,0.0,0.0,0.0,0.0,0.0,15.0
25.97,0.0,0.0,0.0,0.0,0.0,0.0,0.0,15.0
25.99,0.0,0.0,0.0,0.0,0.0,0.0,0.0,15.0
25.99,0.0,0.0,0.0,0.0,0.0,0.0,0.0,15.0
26.23,0.0,0.0,0.0,0.0,0.0,0.0,0.0,15.0
26.29,0.0,0.0,0.0,0.0,0.0,0.0,0.0,15.0
26.31,0.0,0.0,0.0,0.0,0.0,0.0,0.0,15.0
26.27,0.0,0.0,0.0,0.0,0.0,0.0,0.0,15.0
26.23,0.0,0.0,0.0,0.0,0.0,0.0,0.0,18.0
26.11,0.0,0.0,0.0,0.0,0.0,0.0,0.0,27.0
26.03,0.0,0.0,0.0,0.0,0.0,0.0,0.0,36.0
25.87,0.0,0.0,0.0,0.0,0.0,0.0,0.0,46.0
25.81,0.0,0.0,0.0,0.0,0.0,0.0,0.0,55.0
25.85,0.0,0.0,0.0,0.0,0.0,0.0,0.0,66.0
25.85,0.0,0.0,0.0,0.0,0.0,0.0,161.0,76.0
25.85,0.0,0.0,983.0,0.0,0.0,0.0,903.0,86.0
25.85,0.0,0.0,1517.0,0.0,0.0,0.0,984.0,95.0
25.85,0.0,0.0,1554.0,0.0,0.0,0.0,998.0,100.0
25.79,0.0,0.0,1535.0,0.0,0.0,0.0,1026.0,100.0
25.85,0.0,0.0,1522.0,0.0,0.0,0.0,1042.0,100.0
25.81,0.0,0.0,1520.0,0.0,0.0,0.0,1045.0,100.0
25.81,0.0,0.0,1531.0,0.0,0.0,0.0,1051.0,100.0
25.81,0.0,0.0,272.0,0.0,0.0,0.0,344.0,100.0
25.79,0.0,0.0,238.0,0.0,0.0,0.0,279.0,100.0
25.85,0.0,0.0,290.0,0.0,0.0,0.0,374.0,100.0
25.81,0.0,0.0,163.0,0.0,0.0,0.0,339.0,100.0
25.85,0.0,0.0,107.0,0.0,0.0,0.0,350.0,100.0
25.85,0.0,0.0,69.0,0.0,0.0,0.0,341.0,100.0
25.81,0.0,0.0,64.0,0.0,0.0,0.0,358.0,100.0
25.75,0.0,0.0,5.0,0.0,0.0,0.0,443.0,100.0
25.81,0.0,0.0,38.0,0.0,0.0,0.0,516.0,100.0
25.75,0.0,0.0,0.0,0.0,0.0,0.0,520.0,100.0
25.81,0.0,0.0,0.0,0.0,0.0,0.0,517.0,100.0
25.85,0.0,0.0,0.0,0.0,0.0,0.0,516.0,100.0
25.81,0.0,0.0,0.0,0.0,0.0,0.0,414.0,100.0
25.79,0.0,0.0,0.0,0.0,0.0,0.0,412.0,100.0
25.81,0.0,0.0,0.0,0.0,0.0,0.0,308.0,100.0
25.69,0.0,0.0,0.0,0.0,0.0,0.0,122.0,100.0
25.79,0.0,0.0,0.0,0.0,0.0,0.0,161.0,100.0
25.81,0.0,0.0,0.0,0.0,0.0,0.0,191.0,100.0
25.81,0.0,0.0,0.0,0.0,0.0,0.0,193.0,100.0
25.81,0.0,0.0,0.0,0.0,0.0,0.0,171.0,100.0
25.81,0.0,0.0,0.0,0.0,0.0,0.0,443.0,100.0
25.75,0.0,0.0,0.0,0.0,0.0,0.0,514.0,100.0
25.73,0.0,0.0,0.0,0.0,0.0,0.0,274.0,100.0
25.73,0.0,0.0,0.0,0.0,0.0,0.0,294.0,100.0
25.79,0.0,0.0,0.0,0.0,0.0,0.0,261.0,100.0
25.73,0.0,0.0,0.0,0.0,0.0,0.0,264.0,100.0
25.79,0.0,0.0,0.0,0.0,0.0,0.0,146.0,100.0
25.81,0.0,0.0,0.0,0.0,0.0,0.0,150.0,100.0
25.75,0.0,0.0,0.0,0.0,0.0,0.0,259.0,100.0
25.79,0.0,0.0,0.0,0.0,0.0,0.0,263.0,100.0
25.75,0.0,0.0,0.0,0.0,0.0,0.0,225.0,100.0
25.85,0.0,0.0,0.0,0.0,0.0,0.0,280.0,100.0
25.79,0.0,0.0,0.0,0.0,0.0,0.0,282.0,100.0
25.81,0.0,0.0,0.0,0.0,0.0,0.0,413.0,100.0
25.73,0.0,0.0,0.0,0.0,0.0,0.0,455.0,100.0
25.75,0.0,0.0,0.0,0.0,0.0,0.0,643.0,100.0
25.81,0.0,0.0,0.0,0.0,0.0,0.0,764.0,100.0
25.81,0.0,0.0,0.0,0.0,0.0,0.0,475.0,100.0
25.85,0.0,0.0,0.0,0.0,0.0,0.0,266.0,100.0
25.81,0.0,0.0,0.0,0.0,0.0,0.0,578.0,100.0
25.81,0.0,0.0,0.0,0.0,0.0,0.0,93.0,100.0
25.81,0.0,0.0,0.0,0.0,0.0,0.0,0.0,100.0
26.37,0.0,0.0,0.0,0.0,0.0,0.0,0.0,100.0
26.37,0.0,0.0,0.0,0.0,0.0,0.0,0.0,100.0
26.37,0.0,0.0,0.0,0.0,0.0,0.0,0.0,100.0
26.37,0.0,0.0,0.0,0.0,0.0,0.0,0.0,100.0
26.35,0.0,0.0,0.0,0.0,0.0,0.0,0.0,100.0
26.35,0.0,0.0,0.0,0.0,0.0,0.0,0.0,100.0
26.43,0.0,0.0,0.0,0.0,0.0,0.0,0.0,100.0
26.31,0.0,0.0,0.0,0.0,0.0,0.0,0.0,100.0
26.31,0.0,0.0,0.0,0.0,0.0,0.0,0.0,100.0
26.29,0.0,0.0,0.0,0.0,0.0,0.0,0.0,100.0
26.43,0.0,0.0,0.0,0.0,0.0,0.0,0.0,100.0
26.29,0.0,0.0,0.0,0.0,0.0,0.0,0.0,100.0
26.41,0.0,0.0,0.0,0.0,0.0,0.0,0.0,100.0
26.41,0.0,0.0,0.0,0.0,0.0,0.0,0.0,100.0
26.41,0.0,0.0,0.0,0.0,0.0,0.0,0.0,100.0
26.41,0.0,0.0,0.0,0.0,0.0,0.0,0.0,100.0
26.43,0.0,0.0,0.0,0.0,0.0,0.0,0.0,100.0
26.47,0.0,0.0,0.0,0.0,0.0,0.0,0.0,100.0
26.41,0.0,0.0,0.0,0.0,0.0,0.0,0.0,100.0
26.41,0.0,0.0,0.0,0.0,0.0,0.0,0.0,100.0
26.43,0.0,0.0,0.0,0.0,0.0,0.0,0.0,100.0
26.35,0.0,0.0,0.0,0.0,0.0,0.0,0.0,100.0
26.43,0.0,0.0,0.0,0.0,0.0,0.0,0.0,100.0
26.43,0.0,0.0,0.0,0.0,0.0,0.0,0.0,100.0
26.35,0.0,0.0,0.0,0.0,0.0,0.0,0.0,100.0
26.37,0.0,0.0,0.0,0.0,0.0,0.0,0.0,100.0
26.37,0.0,0.0,0.0,0.0,0.0,0.0,0.0,100.0
26.31,0.0,0.0,0.0,0.0,0.0,0.0,0.0,100.0
26.37,0.0,0.0,0.0,0.0,0.0,0.0,0.0,100.0
26.35,0.0,0.0,0.0,0.0,0.0,0.0,0.0,100.0
26.35,0.0,0.0,0.0,0.0,0.0,0.0,0.0,100.0
26.35,0.0,0.0,0.0,0.0,0.0,0.0,0.0,100.0
26.37,0.0,0.0,0.0,0.0,0.0,0.0,0.0,100.0
26.41,0.0,0.0,0.0,0.0,0.0,0.0,0.0,100.0
26.37,0.0,0.0,0.0,0.0,0.0,0.0,0.0,15.0
26.41,0.0,0.0,0.0,0.0,0.0,0.0,0.0,15.0
26.41,0.0,0.0,0.0,0.0,0.0,0.0,0.0,15.0
26.47,0.0,0.0,0.0,0.0,0.0,0.0,0.0,15.0
26.37,0.0,0.0,0.0,0.0,0.0,0.0,0.0,15.0
26.37,0.0,0.0,0.0,0.0,0.0,0.0,0.0,15.0
26.29,0.0,0.0,0.0,0.0,0.0,0.0,0.0,15.0
26.29,0.0,0.0,0.0,0.0,0.0,0.0,0.0,15.0
26.31,0.0,0.0,0.0,0.0,0.0,0.0,0.0,15.0
26.35,0.0,0.0,0.0,0.0,0.0,0.0,0.0,15.0
26.31,0.0,0.0,0.0,0.0,0.0,0.0,0.0,15.0
26.29,0.0,0.0,0.0,0.0,0.0,0.0,0.0,15.0
26.29,0.0,0.0,0.0,0.0,0.0,0.0,0.0,15.0
26.31,0.0,0.0,0.0,0.0,0.0,0.0,0.0,15.0
26.15,0.0,0.0,0.0,0.0,0.0,0.0,0.0,15.0
26.03,0.0,0.0,0.0,0.0,0.0,0.0,0.0,15.0
26.03,0.0,0.0,0.0,0.0,0.0,0.0,0.0,15.0
26.03,0.0,0.0,0.0,0.0,0.0,0.0,0.0,15.0
25.99,0.0,0.0,0.0,0.0,0.0,0.0,0.0,15.0
25.99,0.0,0.0,0.0,0.0,0.0,0.0,0.0,15.0
25.97,0.0,0.0,0.0,0.0,0.0,0.0,0.0,15.0
26.03,0.0,0.0,0.0,0.0,0.0,0.0,0.0,15.0
26.35,0.0,0.0,0.0,0.0,0.0,0.0,0.0,15.0
26.27,0.0,0.0,0.0,0.0,0.0,0.0,0.0,15.0
26.31,0.0,0.0,0.0,0.0,0.0,0.0,0.0,15.0
26.29,0.0,0.0,0.0,0.0,0.0,0.0,0.0,15.0
26.27,0.0,0.0,0.0,0.0,0.0,0.0,0.0,15.0
26.29,0.0,0.0,0.0,0.0,0.0,0.0,0.0,15.0
26.23,0.0,0.0,0.0,0.0,0.0,0.0,0.0,15.0
26.23,0.0,0.0,0.0,0.0,0.0,0.0,0.0,15.0
26.29,0.0,0.0,0.0,0.0,0.0,0.0,0.0,15.0
26.21,0.0,0.0,0.0,0.0,0.0,0.0,0.0,15.0
26.23,0.0,0.0,0.0,0.0,0.0,0.0,0.0,15.0
26.29,0.0,0.0,0.0,0.0,0.0,0.0,0.0,15.0
26.29,0.0,0.0,0.0,0.0,0.0,0.0,0.0,15.0
26.23,0.0,0.0,0.0,0.0,0.0,0.0,0.0,15.0
26.31,0.0,0.0,0.0,0.0,0.0,0.0,0.0,15.0
26.27,0.0,0.0,0.0,0.0,0.0,0.0,0.0,15.0
26.37,0.0,0.0,0.0,0.0,0.0,0.0,0.0,15.0
26.31,0.0,0.0,0.0,0.0,0.0,0.0,0.0,15.0
26.41,0.0,0.0,0.0,0.0,0.0,0.0,0.0,15.0
26.37,0.0,0.0,0.0,0.0,0.0,0.0,0.0,15.0
26.43,0.0,0.0,0.0,0.0,0.0,0.0,0.0,15.0
26.61,0.0,0.0,0.0,0.0,0.0,0.0,0.0,15.0
26.93,0.0,0.0,0.0,0.0,0.0,0.0,0.0,15.0
31.47,0.0,0.0,0.0,0.0,0.0,0.0,0.0,15.0
35.39,0.0,0.0,0.0,0.0,0.0,0.0,0.0,15.0
36.97,0.0,0.0,0.0,0.0,0.0,0.0,0.0,15.0
37.35,0.0,0.0,0.0,0.0,0.0,0.0,0.0,15.0
37.59,0.0,0.0,0.0,0.0,0.0,0.0,0.0,15.0
37.69,0.0,0.0,0.0,0.0,0.0,0.0,0.0,15.0
37.71,0.0,0.0,0.0,0.0,0.0,0.0,0.0,15.0
37.85,0.0,0.0,0.0,0.0,0.0,0.0,0.0,15.0
38.05,0.0,0.0,0.0,0.0,0.0,0.0,0.0,15.0
38.01,0.0,0.0,0.0,0.0,0.0,0.0,0.0,16.0
38.13,0.0,0.0,0.0,0.0,0.0,0.0,0.0,26.0
38.11,0.0,0.0,0.0,0.0,0.0,0.0,0.0,36.0
38.09,0.0,0.0,0.0,0.0,0.0,0.0,0.0,45.0
38.25,0.0,0.0,0.0,0.0,0.0,0.0,0.0,55.0
38.33,0.0,0.0,0.0,0.0,0.0,0.0,0.0,65.0
38.05,0.0,24.0,0.0,0.0,0.0,0.0,1384.0,75.0
37.99,0.0,674.0,0.0,0.0,0.0,0.0,2124.0,85.0
37.79,0.0,711.0,0.0,0.0,0.0,0.0,2187.0,95.0
37.67,0.0,720.0,0.0,0.0,0.0,0.0,2237.0,100.0
37.63,0.0,719.0,0.0,0.0,0.0,0.0,2234.0,100.0
37.67,0.0,694.0,0.0,0.0,0.0,0.0,2236.0,100.0
37.67,0.0,723.0,0.0,0.0,0.0,0.0,2239.0,100.0
37.63,0.0,738.0,0.0,0.0,0.0,0.0,2228.0,100.0
37.63,0.0,698.0,0.0,0.0,0.0,0.0,2241.0,100.0
37.71,0.0,742.0,0.0,0.0,0.0,0.0,2244.0,100.0
37.71,0.0,354.0,0.0,0.0,0.0,0.0,1768.0,100.0
37.75,0.0,281.0,0.0,0.0,0.0,0.0,1686.0,100.0
37.71,0.0,302.0,0.0,0.0,0.0,0.0,1679.0,100.0
37.75,0.0,186.0,0.0,0.0,0.0,0.0,1715.0,100.0
37.77,0.0,256.0,0.0,0.0,0.0,0.0,1680.0,100.0
37.71,0.0,334.0,0.0,0.0,0.0,0.0,1625.0,100.0
37.77,0.0,373.0,0.0,0.0,0.0,0.0,1583.0,100.0
37.75,0.0,419.0,0.0,0.0,0.0,240.0,1543.0,100.0
37.71,0.0,464.0,0.0,0.0,0.0,0.0,1489.0,100.0
37.71,0.0,496.0,0.0,0.0,0.0,0.0,1528.0,100.0
37.75,0.0,527.0,0.0,0.0,0.0,0.0,1520.0,100.0
37.67,0.0,511.0,0.0,0.0,0.0,0.0,1600.0,100.0
37.71,0.0,507.0,0.0,0.0,0.0,0.0,1598.0,100.0
37.77,0.0,510.0,0.0,0.0,0.0,0.0,1608.0,100.0
37.75,0.0,504.0,0.0,0.0,0.0,0.0,1608.0,100.0
37.83,0.0,528.0,0.0,0.0,0.0,0.0,1629.0,100.0
37.71,0.0,527.0,0.0,0.0,0.0,0.0,1607.0,100.0
37.69,0.0,542.0,0.0,0.0,0.0,0.0,1624.0,100.0
37.77,0.0,506.0,0.0,0.0,0.0,0.0,1591.0,100.0
37.75,0.0,511.0,0.0,0.0,0.0,0.0,1632.0,100.0
37.77,0.0,457.0,0.0,0.0,0.0,0.0,1578.0,100.0
37.79,0.0,423.0,0.0,0.0,0.0,0.0,1643.0,100.0
37.75,0.0,430.0,0.0,0.0,0.0,0.0,1621.0,100.0
37.77,0.0,305.0,0.0,0.0,0.0,0.0,1516.0,100.0
37.75,0.0,297.0,0.0,0.0,0.0,0.0,1548.0,100.0
37.71,0.0,295.0,0.0,0.0,0.0,0.0,1552.0,100.0
37.61,0.0,225.0,0.0,0.0,0.0,0.0,1564.0,100.0
37.71,0.0,179.0,0.0,0.0,0.0,0.0,1571.0,100.0
37.71,0.0,240.0,0.0,0.0,0.0,0.0,1570.0,100.0
37.75,0.0,256.0,0.0,0.0,0.0,0.0,1586.0,100.0
37.71,0.0,192.0,0.0,0.0,0.0,0.0,1721.0,100.0
37.75,0.0,80.0,0.0,0.0,0.0,0.0,1772.0,100.0
37.79,0.0,0.0,0.0,0.0,0.0,0.0,1832.0,100.0
37.83,0.0,0.0,0.0,0.0,0.0,0.0,1725.0,100.0
37.77,0.0,0.0,0.0,0.0,0.0,0.0,1854.0,100.0
37.83,0.0,0.0,0.0,0.0,0.0,0.0,1875.0,100.0
37.77,0.0,0.0,0.0,0.0,0.0,0.0,1870.0,100.0
37.71,0.0,0.0,0.0,0.0,0.0,0.0,1875.0,100.0
37.75,0.0,0.0,0.0,0.0,0.0,0.0,1867.0,100.0
37.85,0.0,0.0,0.0,0.0,0.0,0.0,1872.0,100.0
37.85,0.0,0.0,0.0,0.0,0.0,0.0,1875.0,100.0
37.93,0.0,0.0,0.0,0.0,0.0,0.0,1882.0,100.0
37.91,0.0,0.0,0.0,0.0,0.0,0.0,1887.0,100.0
37.93,0.0,0.0,0.0,0.0,0.0,0.0,1884.0,100.0
37.91,0.0,0.0,0.0,0.0,0.0,0.0,1888.0,100.0
37.83,0.0,0.0,0.0,0.0,0.0,0.0,1888.0,100.0
37.87,0.0,0.0,0.0,0.0,0.0,0.0,1890.0,100.0
37.91,0.0,0.0,0.0,0.0,0.0,0.0,1886.0,100.0
37.87,0.0,0.0,0.0,0.0,0.0,0.0,1878.0,100.0
37.99,0.0,0.0,0.0,0.0,0.0,0.0,1879.0,100.0
37.99,0.0,0.0,0.0,0.0,0.0,0.0,1879.0,100.0
37.93,0.0,0.0,0.0,0.0,0.0,0.0,1881.0,100.0
37.93,0.0,0.0,0.0,0.0,0.0,0.0,1884.0,100.0
37.93,0.0,0.0,0.0,0.0,0.0,0.0,1880.0,100.0
37.99,0.0,0.0,0.0,0.0,0.0,0.0,1876.0,100.0
37.95,0.0,0.0,0.0,0.0,0.0,0.0,1891.0,100.0
38.01,0.0,0.0,0.0,0.0,0.0,0.0,1890.0,100.0
37.91,0.0,0.0,0.0,0.0,0.0,0.0,1884.0,100.0
37.93,0.0,0.0,0.0,0.0,0.0,0.0,1890.0,100.0
37.99,0.0,0.0,0.0,0.0,0.0,0.0,1894.0,100.0
38.01,0.0,0.0,0.0,0.0,0.0,0.0,1896.0,100.0
37.95,0.0,0.0,0.0,0.0,0.0,0.0,1895.0,100.0
37.85,0.0,0.0,0.0,0.0,0.0,0.0,1894.0,100.0
37.85,0.0,0.0,0.0,0.0,0.0,0.0,1894.0,100.0
37.85,0.0,0.0,0.0,0.0,0.0,0.0,1884.0,100.0
37.83,0.0,0.0,0.0,0.0,0.0,0.0,1882.0,100.0
37.85,0.0,0.0,0.0,0.0,0.0,0.0,1881.0,100.0
37.87,0.0,0.0,0.0,0.0,0.0,0.0,1882.0,100.0
37.83,0.0,0.0,0.0,0.0,0.0,0.0,1887.0,100.0
37.79,0.0,0.0,0.0,0.0,0.0,0.0,1884.0,100.0
37.83,0.0,0.0,0.0,0.0,0.0,0.0,1880.0,100.0
37.87,0.0,0.0,0.0,0.0,0.0,0.0,1886.0,100.0
37.85,0.0,0.0,0.0,0.0,0.0,0.0,1882.0,100.0
37.85,0.0,0.0,0.0,0.0,0.0,0.0,1880.0,15.0
37.63,0.0,206.0,0.0,0.0,0.0,0.0,22.0,15.0
34.55,0.0,0.0,0.0,0.0,0.0,0.0,0.0,15.0
27.43,0.0,0.0,0.0,0.0,0.0,0.0,0.0,15.0
27.11,0.0,0.0,0.0,0.0,0.0,0.0,0.0,15.0
27.37,0.0,0.0,0.0,0.0,0.0,0.0,0.0,15.0
28.05,0.0,0.0,0.0,0.0,0.0,0.0,0.0,15.0
27.79,0.0,0.0,0.0,0.0,0.0,0.0,0.0,15.0
27.81,0.0,0.0,0.0,0.0,0.0,0.0,0.0,15.0
28.45,0.0,0.0,0.0,0.0,0.0,0.0,0.0,15.0
26.87,0.0,0.0,0.0,0.0,0.0,0.0,0.0,15.0
26.71,0.0,0.0,0.0,0.0,0.0,0.0,0.0,15.0
26.67,0.0,0.0,0.0,0.0,0.0,0.0,0.0,15.0
26.71,0.0,0.0,0.0,0.0,0.0,0.0,0.0,15.0
26.67,0.0,0.0,0.0,0.0,0.0,0.0,0.0,15.0
26.83,0.0,0.0,0.0,0.0,0.0,0.0,0.0,15.0
26.77,0.0,0.0,0.0,0.0,0.0,0.0,0.0,15.0
26.77,0.0,0.0,0.0,0.0,0.0,0.0,0.0,15.0
26.73,0.0,0.0,0.0,0.0,0.0,0.0,0.0,15.0
26.77,0.0,0.0,0.0,0.0,0.0,0.0,0.0,15.0
26.79,0.0,0.0,0.0,0.0,0.0,0.0,0.0,15.0
26.79,0.0,0.0,0.0,0.0,0.0,0.0,0.0,15.0
26.43,0.0,0.0,0.0,0.0,0.0,0.0,0.0,15.0
26.47,0.0,0.0,0.0,0.0,0.0,0.0,0.0,15.0
26.47,0.0,0.0,0.0,0.0,0.0,0.0,0.0,15.0
26.53,0.0,0.0,0.0,0.0,0.0,0.0,0.0,15.0
26.49,0.0,0.0,0.0,0.0,0.0,0.0,0.0,15.0
26.53,0.0,0.0,0.0,0.0,0.0,0.0,0.0,15.0
26.53,0.0,0.0,0.0,0.0,0.0,0.0,0.0,15.0
26.47,0.0,0.0,0.0,0.0,0.0,0.0,0.0,15.0
26.47,0.0,0.0,0.0,0.0,0.0,0.0,0.0,15.0
26.53,0.0,0.0,0.0,0.0,0.0,0.0,0.0,15.0
26.53,0.0,0.0,0.0,0.0,0.0,0.0,0.0,15.0
26.47,0.0,0.0,0.0,0.0,0.0,0.0,0.0,15.0
26.55,0.0,0.0,0.0,0.0,0.0,0.0,0.0,15.0
26.49,0.0,0.0,0.0,0.0,0.0,0.0,0.0,15.0
26.61,0.0,0.0,0.0,0.0,0.0,0.0,0.0,15.0
26.61,0.0,0.0,0.0,0.0,0.0,0.0,0.0,15.0
26.59,0.0,0.0,0.0,0.0,0.0,0.0,0.0,15.0
26.67,0.0,0.0,0.0,0.0,0.0,0.0,0.0,15.0
26.49,0.0,0.0,0.0,0.0,0.0,0.0,0.0,15.0
26.55,0.0,0.0,0.0,0.0,0.0,0.0,0.0,15.0
26.59,0.0,0.0,0.0,0.0,0.0,0.0,0.0,15.0
26.47,0.0,0.0,0.0,0.0,0.0,0.0,0.0,15.0
26.55,0.0,0.0,0.0,0.0,0.0,0.0,0.0,15.0
26.53,0.0,0.0,0.0,0.0,0.0,0.0,0.0,15.0
26.53,0.0,0.0,0.0,0.0,0.0,0.0,0.0,15.0
26.53,0.0,0.0,0.0,0.0,0.0,0.0,0.0,15.0
26.49,0.0,0.0,0.0,0.0,0.0,0.0,0.0,15.0
26.29,0.0,0.0,0.0,0.0,0.0,0.0,0.0,15.0
26.53,0.0,0.0,0.0,0.0,0.0,0.0,0.0,15.0
27.47,0.0,0.0,0.0,0.0,0.0,0.0,0.0,15.0
27.85,0.0,0.0,0.0,0.0,0.0,0.0,0.0,15.0
27.81,0.0,0.0,0.0,0.0,0.0,0.0,0.0,15.0
27.53,0.0,0.0,0.0,0.0,0.0,0.0,0.0,15.0
27.75,0.0,0.0,0.0,0.0,0.0,0.0,0.0,15.0
27.73,0.0,0.0,0.0,0.0,0.0,0.0,0.0,23.0
27.63,0.0,0.0,0.0,0.0,0.0,0.0,0.0,33.0
27.43,0.0,0.0,0.0,0.0,0.0,0.0,0.0,42.0
27.21,0.0,0.0,0.0,0.0,0.0,0.0,0.0,51.0
27.23,0.0,0.0,0.0,0.0,0.0,0.0,0.0,60.0
27.41,0.0,0.0,0.0,0.0,0.0,0.0,0.0,72.0
27.11,0.0,0.0,0.0,0.0,0.0,0.0,22.0,83.0
27.09,0.0,0.0,0.0,0.0,0.0,0.0,1668.0,93.0
26.93,0.0,0.0,0.0,0.0,0.0,0.0,1799.0,100.0
26.93,0.0,0.0,0.0,0.0,0.0,0.0,1834.0,100.0
26.99,0.0,0.0,0.0,0.0,0.0,0.0,1243.0,100.0
26.99,0.0,0.0,0.0,0.0,0.0,0.0,996.0,100.0
26.93,0.0,0.0,0.0,0.0,0.0,0.0,1020.0,100.0
26.99,0.0,0.0,0.0,0.0,0.0,0.0,1026.0,100.0
26.97,0.0,0.0,0.0,0.0,0.0,0.0,1056.0,100.0
26.97,0.0,0.0,0.0,0.0,0.0,0.0,1062.0,100.0
26.97,0.0,0.0,0.0,0.0,0.0,0.0,1063.0,100.0
26.99,0.0,0.0,0.0,0.0,0.0,0.0,1074.0,100.0
26.97,0.0,0.0,0.0,0.0,0.0,0.0,1086.0,100.0
26.99,0.0,0.0,0.0,0.0,0.0,0.0,1093.0,100.0
27.05,0.0,0.0,0.0,0.0,0.0,0.0,1100.0,100.0
26.91,0.0,0.0,0.0,0.0,0.0,0.0,1095.0,100.0
26.97,0.0,0.0,0.0,0.0,0.0,0.0,1103.0,100.0
26.99,0.0,0.0,0.0,0.0,0.0,0.0,1126.0,100.0
26.83,0.0,0.0,0.0,0.0,0.0,0.0,1121.0,100.0
26.83,0.0,0.0,0.0,0.0,0.0,0.0,1119.0,100.0
26.83,0.0,0.0,0.0,0.0,0.0,0.0,1130.0,100.0
26.83,0.0,0.0,0.0,0.0,0.0,0.0,1133.0,100.0
26.85,0.0,0.0,0.0,0.0,0.0,0.0,1137.0,100.0
26.83,0.0,0.0,0.0,0.0,0.0,0.0,1137.0,100.0
26.83,0.0,0.0,0.0,0.0,0.0,0.0,1137.0,100.0
26.83,0.0,0.0,0.0,0.0,0.0,0.0,1143.0,100.0
26.87,0.0,0.0,0.0,0.0,0.0,0.0,1132.0,100.0
26.83,0.0,0.0,0.0,0.0,0.0,0.0,1138.0,100.0
26.83,0.0,0.0,0.0,0.0,0.0,0.0,1138.0,100.0
26.83,0.0,0.0,0.0,0.0,0.0,0.0,1140.0,100.0
26.79,0.0,0.0,0.0,0.0,0.0,0.0,1140.0,100.0
26.83,0.0,0.0,0.0,0.0,0.0,0.0,1142.0,100.0
26.73,0.0,0.0,0.0,0.0,0.0,0.0,1144.0,100.0
26.71,0.0,0.0,0.0,0.0,0.0,0.0,1145.0,100.0
26.77,0.0,0.0,0.0,0.0,0.0,0.0,1138.0,100.0
26.79,0.0,0.0,0.0,0.0,0.0,0.0,1138.0,100.0
26.79,0.0,0.0,0.0,0.0,0.0,0.0,1136.0,100.0
26.65,0.0,0.0,0.0,0.0,0.0,0.0,1132.0,100.0
26.77,0.0,0.0,0.0,0.0,0.0,0.0,1146.0,100.0
26.73,0.0,0.0,0.0,0.0,0.0,0.0,1144.0,100.0
26.77,0.0,0.0,0.0,0.0,0.0,0.0,1132.0,100.0
26.71,0.0,0.0,0.0,0.0,0.0,0.0,1137.0,100.0
26.79,0.0,0.0,0.0,0.0,0.0,0.0,1149.0,100.0
26.79,0.0,0.0,0.0,0.0,0.0,0.0,1149.0,100.0
26.79,0.0,0.0,0.0,0.0,0.0,0.0,1136.0,100.0
26.67,0.0,0.0,0.0,0.0,0.0,0.0,1137.0,100.0
26.77,0.0,0.0,0.0,0.0,0.0,0.0,1139.0,100.0
26.83,0.0,0.0,0.0,0.0,0.0,0.0,1142.0,100.0
26.71,0.0,0.0,0.0,0.0,0.0,0.0,1141.0,100.0
26.71,0.0,0.0,0.0,0.0,0.0,0.0,1135.0,100.0
26.71,0.0,0.0,0.0,0.0,0.0,0.0,1142.0,100.0
26.73,0.0,0.0,0.0,0.0,0.0,0.0,1127.0,100.0
26.71,0.0,0.0,0.0,0.0,0.0,0.0,1132.0,100.0
26.71,0.0,0.0,0.0,0.0,0.0,0.0,1137.0,100.0
26.73,0.0,0.0,0.0,0.0,0.0,0.0,1133.0,100.0
26.65,0.0,0.0,0.0,0.0,0.0,0.0,1136.0,100.0
26.73,0.0,0.0,0.0,0.0,0.0,0.0,1135.0,100.0
26.77,0.0,0.0,0.0,0.0,0.0,0.0,1135.0,100.0
26.83,0.0,0.0,0.0,0.0,0.0,0.0,1132.0,100.0
26.73,0.0,0.0,0.0,0.0,0.0,0.0,1135.0,100.0
26.73,0.0,0.0,0.0,0.0,0.0,0.0,1132.0,100.0
26.73,0.0,0.0,0.0,0.0,0.0,0.0,1130.0,100.0
26.71,0.0,0.0,0.0,0.0,0.0,0.0,1123.0,100.0
26.83,0.0,0.0,0.0,0.0,0.0,0.0,1134.0,100.0
26.79,0.0,0.0,0.0,0.0,0.0,0.0,1135.0,100.0
26.79,0.0,0.0,0.0,0.0,0.0,0.0,1133.0,100.0
26.85,0.0,0.0,0.0,0.0,0.0,0.0,1130.0,100.0
26.85,0.0,0.0,0.0,0.0,0.0,0.0,1142.0,100.0
26.73,0.0,0.0,0.0,0.0,0.0,0.0,1140.0,100.0
26.77,0.0,0.0,0.0,0.0,0.0,0.0,1128.0,100.0
26.77,0.0,0.0,0.0,0.0,0.0,0.0,1098.0,100.0
26.77,0.0,0.0,0.0,0.0,0.0,0.0,1118.0,100.0
26.77,0.0,0.0,0.0,216.0,0.0,0.0,1121.0,100.0
26.77,0.0,0.0,0.0,0.0,0.0,0.0,1104.0,100.0
26.85,0.0,0.0,0.0,0.0,0.0,0.0,1113.0,100.0
26.87,0.0,0.0,0.0,0.0,0.0,0.0,1039.0,100.0
26.85,0.0,0.0,0.0,0.0,0.0,0.0,1049.0,100.0
26.77,0.0,0.0,0.0,0.0,0.0,0.0,1044.0,100.0
26.73,0.0,0.0,0.0,0.0,0.0,0.0,1053.0,100.0
26.73,0.0,0.0,0.0,0.0,0.0,0.0,1057.0,100.0
26.73,0.0,0.0,0.0,0.0,0.0,0.0,1061.0,100.0
26.83,0.0,0.0,0.0,0.0,0.0,0.0,1061.0,100.0
26.77,0.0,0.0,0.0,0.0,0.0,0.0,0.0,15.0
27.21,0.0,0.0,0.0,0.0,0.0,0.0,0.0,15.0
26.65,0.0,0.0,0.0,0.0,0.0,0.0,0.0,15.0
26.65,0.0,0.0,0.0,0.0,0.0,0.0,0.0,15.0
26.65,0.0,0.0,0.0,0.0,0.0,0.0,0.0,15.0
26.67,0.0,0.0,0.0,0.0,0.0,0.0,0.0,15.0
26.65,0.0,0.0,0.0,0.0,0.0,0.0,0.0,15.0
26.59,0.0,0.0,0.0,0.0,0.0,0.0,0.0,15.0
26.55,0.0,0.0,0.0,0.0,0.0,0.0,0.0,15.0
26.55,0.0,0.0,0.0,0.0,0.0,0.0,0.0,15.0
26.55,0.0,0.0,0.0,0.0,0.0,0.0,0.0,15.0
26.49,0.0,0.0,0.0,0.0,0.0,0.0,0.0,15.0
26.55,0.0,0.0,0.0,0.0,0.0,0.0,0.0,15.0
26.53,0.0,0.0,0.0,0.0,0.0,0.0,0.0,15.0
26.59,0.0,0.0,0.0,0.0,0.0,0.0,0.0,15.0
26.53,0.0,0.0,0.0,0.0,0.0,0.0,0.0,15.0
26.49,0.0,0.0,0.0,0.0,0.0,0.0,0.0,15.0
26.53,0.0,0.0,0.0,0.0,0.0,0.0,0.0,15.0
26.53,0.0,0.0,0.0,0.0,0.0,0.0,0.0,15.0
26.55,0.0,0.0,0.0,0.0,0.0,0.0,0.0,15.0
26.53,0.0,0.0,0.0,0.0,0.0,0.0,0.0,15.0
26.55,0.0,0.0,0.0,0.0,0.0,0.0,0.0,15.0
26.55,0.0,0.0,0.0,0.0,0.0,0.0,0.0,15.0
26.53,0.0,0.0,0.0,0.0,0.0,0.0,0.0,15.0
26.49,0.0,0.0,0.0,0.0,0.0,0.0,0.0,15.0
26.53,0.0,0.0,0.0,0.0,0.0,0.0,0.0,15.0
26.53,0.0,0.0,0.0,0.0,0.0,0.0,0.0,15.0
26.49,0.0,0.0,0.0,0.0,0.0,0.0,0.0,15.0
