tempMLX,FSR_A1,FSR_A2,FSR_A3,FSR_B1,FSR_B2,FSR_B3,FSR_C,porcAper
10.0,0.0,0.0,0.0,0.0,0.0,0.0,0.0,15.0
0.0,0.0,0.0,0.0,0.0,0.0,0.0,0.0,15.0
0.0,0.0,0.0,0.0,0.0,0.0,0.0,0.0,15.0
25.81,0.0,0.0,0.0,0.0,0.0,0.0,0.0,15.0
25.81,0.0,0.0,0.0,0.0,0.0,0.0,0.0,15.0
25.79,0.0,0.0,0.0,0.0,0.0,0.0,0.0,15.0
25.85,0.0,0.0,0.0,0.0,0.0,0.0,0.0,15.0
25.87,0.0,0.0,0.0,0.0,0.0,0.0,0.0,15.0
25.93,0.0,0.0,0.0,0.0,0.0,0.0,0.0,15.0
25.87,0.0,0.0,0.0,0.0,0.0,0.0,0.0,15.0
25.93,0.0,0.0,0.0,0.0,0.0,0.0,0.0,15.0
25.93,0.0,0.0,0.0,0.0,0.0,0.0,0.0,15.0
25.87,0.0,0.0,0.0,0.0,0.0,0.0,0.0,15.0
25.87,0.0,0.0,0.0,0.0,0.0,0.0,0.0,15.0
25.91,0.0,0.0,0.0,0.0,0.0,0.0,0.0,15.0
25.93,0.0,0.0,0.0,0.0,0.0,0.0,0.0,15.0
25.93,0.0,0.0,0.0,0.0,0.0,0.0,0.0,15.0
25.87,0.0,0.0,0.0,0.0,0.0,0.0,0.0,15.0
25.91,0.0,0.0,0.0,0.0,0.0,0.0,0.0,15.0
25.91,0.0,0.0,0.0,0.0,0.0,0.0,0.0,15.0
25.91,0.0,0.0,0.0,0.0,0.0,0.0,0.0,15.0
25.87,0.0,0.0,0.0,0.0,0.0,0.0,0.0,15.0
25.91,0.0,0.0,0.0,0.0,0.0,0.0,0.0,15.0
25.91,0.0,0.0,0.0,0.0,0.0,0.0,0.0,15.0
25.87,0.0,0.0,0.0,0.0,0.0,0.0,0.0,15.0
25.93,0.0,0.0,0.0,0.0,0.0,0.0,0.0,15.0
25.91,0.0,0.0,0.0,0.0,0.0,0.0,0.0,15.0
25.97,0.0,0.0,0.0,0.0,0.0,0.0,0.0,15.0
25.91,0.0,0.0,0.0,0.0,0.0,0.0,0.0,15.0
25.91,0.0,0.0,0.0,0.0,0.0,0.0,0.0,15.0
25.91,0.0,0.0,0.0,0.0,0.0,0.0,0.0,15.0
25.91,0.0,0.0,0.0,0.0,0.0,0.0,0.0,15.0
25.93,0.0,0.0,0.0,0.0,0.0,0.0,0.0,15.0
25.93,0.0,0.0,0.0,0.0,0.0,0.0,0.0,15.0
25.91,0.0,0.0,0.0,0.0,0.0,0.0,0.0,15.0
25.91,0.0,0.0,0.0,0.0,0.0,0.0,0.0,15.0
25.93,0.0,0.0,0.0,0.0,0.0,0.0,0.0,15.0
25.91,0.0,0.0,0.0,0.0,0.0,0.0,0.0,15.0
25.91,0.0,0.0,0.0,0.0,0.0,0.0,0.0,15.0
25.85,0.0,0.0,0.0,0.0,0.0,0.0,0.0,15.0
25.91,0.0,0.0,0.0,0.0,0.0,0.0,0.0,15.0
25.87,0.0,0.0,0.0,0.0,0.0,0.0,0.0,15.0
25.91,0.0,0.0,0.0,0.0,0.0,0.0,0.0,15.0
25.85,0.0,0.0,0.0,0.0,0.0,64.0,0.0,15.0
25.87,0.0,0.0,0.0,0.0,0.0,0.0,0.0,15.0
25.91,0.0,0.0,0.0,0.0,0.0,0.0,0.0,15.0
25.91,0.0,0.0,0.0,0.0,0.0,0.0,0.0,15.0
25.91,0.0,0.0,0.0,0.0,0.0,0.0,0.0,15.0
25.87,0.0,0.0,0.0,0.0,0.0,0.0,0.0,15.0
25.87,0.0,0.0,0.0,0.0,0.0,0.0,0.0,15.0
25.93,0.0,0.0,0.0,0.0,0.0,0.0,0.0,15.0
25.85,0.0,0.0,0.0,0.0,0.0,0.0,0.0,15.0
25.91,0.0,0.0,0.0,0.0,0.0,0.0,0.0,15.0
25.97,0.0,0.0,0.0,0.0,0.0,0.0,0.0,15.0
25.87,0.0,0.0,0.0,0.0,0.0,0.0,0.0,15.0
25.93,0.0,0.0,0.0,0.0,0.0,0.0,0.0,15.0
25.87,0.0,0.0,0.0,0.0,0.0,0.0,0.0,15.0
25.91,0.0,0.0,0.0,0.0,0.0,0.0,0.0,15.0
25.97,0.0,0.0,0.0,0.0,0.0,0.0,0.0,15.0
25.87,0.0,0.0,0.0,0.0,0.0,0.0,0.0,15.0
25.93,0.0,0.0,0.0,0.0,0.0,0.0,0.0,15.0
25.85,0.0,0.0,0.0,0.0,0.0,0.0,0.0,15.0
25.87,0.0,0.0,0.0,0.0,0.0,0.0,0.0,15.0
25.93,0.0,0.0,0.0,0.0,0.0,0.0,0.0,15.0
25.91,0.0,0.0,0.0,0.0,0.0,0.0,0.0,15.0
25.85,0.0,0.0,0.0,0.0,0.0,0.0,0.0,15.0
25.85,0.0,0.0,0.0,0.0,0.0,0.0,0.0,15.0
25.87,0.0,0.0,0.0,0.0,0.0,0.0,0.0,15.0
25.87,0.0,0.0,0.0,0.0,0.0,0.0,0.0,15.0
25.87,0.0,0.0,0.0,0.0,0.0,0.0,0.0,15.0
25.87,0.0,0.0,0.0,0.0,0.0,0.0,0.0,15.0
25.79,0.0,0.0,0.0,0.0,0.0,0.0,0.0,15.0
25.75,0.0,0.0,0.0,0.0,0.0,0.0,0.0,15.0
25.81,0.0,0.0,0.0,0.0,0.0,0.0,0.0,15.0
25.81,0.0,0.0,0.0,0.0,0.0,0.0,0.0,15.0
25.87,0.0,0.0,0.0,0.0,0.0,0.0,0.0,15.0
25.81,0.0,0.0,0.0,0.0,0.0,0.0,0.0,15.0
25.81,0.0,0.0,0.0,0.0,0.0,0.0,0.0,15.0
25.79,0.0,0.0,0.0,0.0,0.0,0.0,0.0,15.0
25.79,0.0,0.0,0.0,0.0,0.0,0.0,0.0,15.0
25.79,0.0,0.0,0.0,0.0,0.0,0.0,0.0,15.0
25.75,0.0,0.0,0.0,0.0,0.0,0.0,0.0,15.0
25.75,0.0,0.0,0.0,0.0,0.0,0.0,0.0,15.0
25.85,0.0,0.0,0.0,0.0,0.0,0.0,0.0,15.0
25.85,0.0,0.0,0.0,0.0,0.0,0.0,0.0,15.0
25.81,0.0,0.0,0.0,0.0,0.0,0.0,0.0,15.0
25.79,0.0,0.0,0.0,0.0,0.0,0.0,0.0,15.0
25.79,0.0,0.0,0.0,0.0,0.0,0.0,0.0,15.0
25.81,0.0,0.0,0.0,0.0,0.0,0.0,0.0,15.0
25.79,0.0,0.0,0.0,0.0,0.0,0.0,0.0,15.0
25.81,0.0,0.0,0.0,0.0,0.0,0.0,0.0,15.0
25.79,0.0,0.0,0.0,0.0,0.0,0.0,0.0,15.0
25.81,0.0,0.0,0.0,0.0,0.0,0.0,0.0,15.0
25.75,0.0,0.0,0.0,0.0,0.0,0.0,0.0,15.0
25.81,0.0,0.0,0.0,0.0,0.0,0.0,0.0,15.0
25.75,0.0,0.0,0.0,0.0,0.0,0.0,0.0,15.0
25.75,0.0,0.0,0.0,0.0,0.0,0.0,0.0,15.0
25.69,0.0,0.0,0.0,0.0,0.0,0.0,0.0,15.0
25.79,0.0,0.0,0.0,0.0,0.0,0.0,0.0,15.0
25.73,0.0,0.0,0.0,0.0,0.0,0.0,0.0,15.0
25.73,0.0,0.0,0.0,0.0,0.0,0.0,0.0,15.0
25.81,0.0,0.0,0.0,0.0,0.0,0.0,0.0,15.0
25.87,0.0,0.0,0.0,0.0,0.0,0.0,0.0,15.0
25.81,0.0,0.0,0.0,0.0,0.0,0.0,0.0,15.0
25.81,0.0,0.0,0.0,0.0,0.0,0.0,0.0,15.0
25.81,0.0,0.0,0.0,0.0,0.0,0.0,0.0,15.0
25.85,0.0,0.0,0.0,0.0,0.0,0.0,0.0,15.0
25.81,0.0,0.0,0.0,0.0,0.0,0.0,0.0,15.0
25.73,0.0,0.0,0.0,0.0,0.0,0.0,0.0,15.0
25.79,0.0,0.0,0.0,0.0,0.0,0.0,0.0,15.0
25.79,0.0,0.0,0.0,0.0,0.0,0.0,0.0,15.0
25.85,0.0,0.0,0.0,0.0,0.0,0.0,0.0,15.0
25.81,0.0,0.0,0.0,0.0,0.0,0.0,0.0,15.0
25.87,0.0,0.0,0.0,0.0,0.0,0.0,0.0,15.0
25.85,0.0,0.0,0.0,0.0,0.0,0.0,0.0,15.0
25.91,0.0,0.0,0.0,0.0,0.0,0.0,0.0,15.0
25.93,0.0,0.0,0.0,0.0,0.0,0.0,0.0,15.0
25.87,0.0,0.0,0.0,0.0,0.0,0.0,0.0,15.0
25.91,0.0,0.0,0.0,0.0,0.0,0.0,0.0,15.0
25.91,0.0,0.0,0.0,0.0,0.0,0.0,0.0,15.0
25.81,0.0,0.0,0.0,0.0,0.0,0.0,0.0,15.0
25.79,0.0,0.0,0.0,0.0,0.0,0.0,0.0,15.0
25.81,0.0,0.0,0.0,0.0,0.0,0.0,0.0,15.0
25.81,0.0,0.0,0.0,0.0,0.0,0.0,0.0,15.0
25.79,0.0,0.0,0.0,0.0,0.0,0.0,0.0,15.0
25.87,0.0,0.0,0.0,0.0,0.0,0.0,0.0,15.0
25.81,0.0,0.0,0.0,0.0,0.0,0.0,0.0,15.0
25.85,0.0,0.0,0.0,0.0,0.0,0.0,0.0,15.0
25.79,0.0,0.0,0.0,0.0,0.0,0.0,0.0,15.0
25.85,0.0,0.0,0.0,0.0,0.0,0.0,0.0,15.0
25.81,0.0,0.0,0.0,0.0,0.0,0.0,0.0,15.0
25.81,0.0,0.0,0.0,0.0,0.0,0.0,0.0,15.0
25.79,0.0,0.0,0.0,0.0,0.0,0.0,0.0,15.0
25.87,0.0,0.0,0.0,0.0,0.0,0.0,0.0,15.0
25.87,0.0,0.0,0.0,0.0,0.0,0.0,0.0,15.0
25.85,0.0,0.0,0.0,0.0,0.0,0.0,0.0,15.0
25.91,0.0,0.0,0.0,0.0,0.0,0.0,0.0,15.0
25.87,0.0,0.0,0.0,0.0,0.0,0.0,0.0,15.0
25.85,0.0,0.0,0.0,0.0,0.0,0.0,0.0,15.0
25.81,0.0,0.0,0.0,0.0,0.0,0.0,0.0,15.0
25.79,0.0,0.0,0.0,0.0,0.0,0.0,0.0,15.0
25.79,0.0,0.0,0.0,0.0,0.0,0.0,0.0,15.0
25.79,0.0,0.0,0.0,0.0,0.0,0.0,0.0,15.0
25.91,0.0,0.0,0.0,0.0,0.0,0.0,0.0,15.0
25.87,0.0,0.0,0.0,0.0,0.0,0.0,0.0,15.0
25.85,0.0,0.0,0.0,0.0,0.0,0.0,0.0,15.0
25.91,0.0,0.0,0.0,0.0,0.0,0.0,1.0,16.0
25.97,0.0,0.0,0.0,0.0,0.0,0.0,0.0,27.0
25.93,0.0,0.0,0.0,0.0,0.0,0.0,0.0,36.0
25.97,0.0,0.0,0.0,0.0,0.0,0.0,0.0,45.0
25.97,0.0,0.0,0.0,0.0,0.0,0.0,0.0,55.0
25.93,0.0,0.0,0.0,0.0,0.0,0.0,0.0,64.0
25.99,0.0,0.0,0.0,0.0,0.0,0.0,0.0,75.0
25.99,0.0,0.0,0.0,0.0,0.0,0.0,0.0,84.0
25.91,0.0,0.0,0.0,0.0,0.0,0.0,207.0,88.0
25.97,0.0,0.0,0.0,0.0,0.0,0.0,229.0,88.0
25.99,0.0,0.0,0.0,0.0,0.0,0.0,233.0,88.0
25.99,0.0,0.0,0.0,0.0,0.0,0.0,235.0,88.0
25.99,0.0,0.0,0.0,0.0,0.0,0.0,232.0,88.0
25.97,0.0,0.0,0.0,0.0,0.0,0.0,237.0,88.0
25.97,0.0,0.0,0.0,0.0,0.0,0.0,233.0,88.0
25.97,0.0,0.0,0.0,0.0,0.0,0.0,232.0,88.0
25.99,0.0,0.0,0.0,0.0,0.0,0.0,235.0,88.0
25.99,0.0,0.0,0.0,0.0,0.0,0.0,256.0,88.0
25.91,0.0,0.0,0.0,0.0,0.0,0.0,297.0,88.0
25.97,0.0,0.0,0.0,0.0,0.0,0.0,296.0,88.0
25.97,0.0,0.0,0.0,0.0,0.0,0.0,288.0,88.0
26.09,0.0,0.0,0.0,0.0,0.0,0.0,275.0,88.0
26.23,0.0,0.0,0.0,0.0,32.0,0.0,243.0,88.0
26.17,0.0,0.0,0.0,0.0,0.0,0.0,242.0,88.0
26.17,0.0,0.0,0.0,0.0,0.0,0.0,243.0,88.0
26.15,0.0,0.0,0.0,0.0,0.0,0.0,239.0,88.0
26.11,0.0,0.0,0.0,0.0,0.0,0.0,231.0,88.0
25.97,0.0,0.0,0.0,0.0,0.0,0.0,240.0,88.0
25.97,0.0,0.0,0.0,0.0,0.0,0.0,244.0,88.0
25.97,0.0,0.0,0.0,0.0,0.0,0.0,241.0,88.0
25.97,0.0,0.0,0.0,0.0,0.0,0.0,237.0,88.0
25.93,0.0,0.0,0.0,0.0,0.0,0.0,242.0,88.0
25.97,0.0,0.0,0.0,0.0,0.0,0.0,243.0,88.0
25.97,0.0,0.0,0.0,0.0,0.0,0.0,250.0,88.0
25.97,0.0,0.0,0.0,0.0,0.0,0.0,259.0,88.0
26.03,0.0,0.0,0.0,0.0,0.0,0.0,261.0,88.0
25.97,0.0,0.0,0.0,0.0,0.0,0.0,273.0,88.0
25.97,0.0,0.0,0.0,0.0,0.0,0.0,257.0,88.0
25.99,0.0,0.0,0.0,0.0,0.0,0.0,252.0,88.0
25.99,0.0,0.0,0.0,0.0,0.0,0.0,258.0,88.0
25.97,0.0,0.0,0.0,0.0,0.0,0.0,251.0,88.0
26.03,0.0,0.0,0.0,0.0,0.0,0.0,248.0,88.0
25.99,0.0,0.0,14.0,0.0,0.0,0.0,245.0,88.0
25.97,0.0,0.0,0.0,0.0,0.0,0.0,251.0,88.0
25.97,0.0,0.0,0.0,0.0,0.0,0.0,251.0,88.0
25.93,0.0,0.0,0.0,0.0,0.0,0.0,253.0,88.0
25.97,0.0,0.0,0.0,0.0,0.0,0.0,248.0,88.0
25.99,0.0,0.0,0.0,0.0,0.0,0.0,251.0,88.0
25.97,0.0,0.0,0.0,0.0,0.0,0.0,252.0,88.0
25.99,0.0,0.0,0.0,0.0,0.0,0.0,250.0,88.0
25.99,0.0,0.0,0.0,0.0,0.0,0.0,240.0,88.0
25.97,0.0,0.0,0.0,0.0,0.0,0.0,242.0,88.0
25.97,0.0,0.0,0.0,0.0,0.0,0.0,241.0,88.0
25.99,0.0,0.0,0.0,0.0,0.0,0.0,241.0,88.0
25.97,0.0,0.0,0.0,0.0,0.0,0.0,251.0,88.0
25.97,0.0,0.0,0.0,0.0,0.0,0.0,238.0,88.0
25.97,0.0,0.0,0.0,0.0,0.0,0.0,248.0,88.0
25.97,0.0,0.0,0.0,0.0,0.0,0.0,261.0,88.0
25.91,0.0,0.0,0.0,0.0,0.0,0.0,263.0,88.0
25.91,0.0,0.0,0.0,0.0,0.0,0.0,262.0,88.0
25.93,0.0,0.0,0.0,0.0,0.0,0.0,257.0,88.0
25.97,0.0,0.0,0.0,0.0,0.0,0.0,261.0,88.0
25.87,0.0,0.0,0.0,0.0,0.0,0.0,265.0,88.0
25.91,0.0,0.0,0.0,0.0,0.0,0.0,262.0,88.0
25.91,0.0,0.0,0.0,0.0,0.0,0.0,258.0,88.0
25.81,0.0,0.0,0.0,0.0,0.0,0.0,261.0,88.0
25.91,0.0,0.0,0.0,0.0,0.0,0.0,256.0,88.0
25.93,0.0,0.0,0.0,0.0,0.0,0.0,257.0,88.0
25.91,0.0,0.0,0.0,0.0,0.0,0.0,259.0,88.0
25.87,0.0,0.0,0.0,0.0,0.0,0.0,251.0,88.0
25.87,0.0,0.0,0.0,0.0,0.0,0.0,253.0,88.0
25.87,0.0,0.0,0.0,0.0,0.0,0.0,259.0,88.0
25.87,0.0,0.0,0.0,0.0,0.0,0.0,252.0,88.0
25.87,0.0,0.0,0.0,0.0,0.0,0.0,253.0,88.0
25.87,0.0,0.0,0.0,0.0,0.0,0.0,258.0,88.0
25.91,0.0,0.0,0.0,0.0,0.0,0.0,258.0,88.0
25.91,0.0,0.0,0.0,0.0,0.0,0.0,259.0,88.0
25.87,0.0,0.0,0.0,0.0,0.0,0.0,253.0,88.0
25.85,0.0,0.0,0.0,0.0,0.0,0.0,251.0,88.0
25.91,0.0,0.0,0.0,0.0,0.0,0.0,250.0,88.0
25.87,0.0,0.0,0.0,0.0,0.0,0.0,249.0,88.0
25.93,0.0,0.0,0.0,0.0,0.0,0.0,252.0,88.0
25.81,0.0,0.0,0.0,0.0,0.0,0.0,256.0,88.0
25.87,0.0,0.0,0.0,0.0,0.0,0.0,249.0,88.0
25.91,0.0,0.0,0.0,0.0,0.0,0.0,259.0,88.0
25.79,0.0,0.0,0.0,0.0,0.0,0.0,254.0,88.0
25.93,0.0,0.0,0.0,0.0,0.0,0.0,251.0,88.0
25.87,0.0,0.0,0.0,0.0,0.0,0.0,255.0,88.0
25.87,0.0,0.0,0.0,0.0,0.0,0.0,255.0,88.0
25.87,0.0,0.0,0.0,0.0,0.0,0.0,250.0,88.0
25.87,0.0,0.0,0.0,0.0,0.0,0.0,251.0,88.0
25.87,0.0,0.0,0.0,0.0,0.0,0.0,255.0,88.0
25.91,0.0,0.0,0.0,0.0,0.0,0.0,250.0,88.0
25.87,0.0,0.0,0.0,0.0,0.0,0.0,250.0,15.0
25.93,0.0,0.0,0.0,0.0,0.0,0.0,0.0,15.0
25.97,0.0,0.0,0.0,0.0,0.0,0.0,0.0,15.0
25.85,0.0,0.0,0.0,0.0,0.0,0.0,0.0,15.0
25.87,0.0,0.0,0.0,0.0,0.0,0.0,0.0,15.0
26.35,0.0,0.0,0.0,0.0,0.0,0.0,0.0,15.0
28.05,0.0,0.0,0.0,0.0,0.0,0.0,0.0,15.0
27.93,0.0,0.0,0.0,0.0,0.0,0.0,0.0,15.0
27.29,0.0,0.0,0.0,0.0,0.0,0.0,0.0,15.0
26.17,0.0,0.0,0.0,0.0,0.0,0.0,0.0,15.0
25.81,0.0,0.0,0.0,0.0,0.0,0.0,0.0,15.0
25.81,0.0,0.0,0.0,0.0,0.0,0.0,0.0,15.0
25.87,0.0,0.0,0.0,0.0,0.0,0.0,0.0,15.0
25.79,0.0,0.0,0.0,0.0,0.0,0.0,0.0,15.0
25.81,0.0,0.0,0.0,0.0,0.0,0.0,0.0,15.0
25.91,0.0,0.0,0.0,0.0,0.0,0.0,0.0,15.0
25.87,0.0,0.0,0.0,0.0,0.0,0.0,0.0,15.0
25.91,0.0,0.0,0.0,0.0,0.0,0.0,0.0,15.0
25.97,0.0,0.0,0.0,0.0,0.0,0.0,0.0,15.0
25.87,0.0,0.0,0.0,0.0,0.0,0.0,0.0,15.0
25.97,0.0,0.0,0.0,0.0,0.0,0.0,0.0,15.0
25.91,0.0,0.0,0.0,0.0,0.0,0.0,0.0,15.0
25.87,0.0,0.0,0.0,0.0,0.0,0.0,0.0,15.0
25.87,0.0,0.0,0.0,0.0,0.0,0.0,0.0,15.0
25.91,0.0,0.0,0.0,0.0,0.0,0.0,0.0,15.0
25.93,0.0,0.0,0.0,0.0,0.0,0.0,0.0,15.0
25.97,0.0,0.0,0.0,0.0,0.0,0.0,0.0,15.0
25.97,0.0,0.0,0.0,0.0,0.0,0.0,0.0,15.0
25.85,0.0,0.0,0.0,0.0,0.0,0.0,0.0,15.0
25.87,0.0,0.0,0.0,0.0,0.0,0.0,0.0,15.0
25.97,0.0,0.0,0.0,0.0,0.0,0.0,0.0,15.0
25.91,0.0,0.0,0.0,0.0,0.0,0.0,0.0,15.0
25.91,0.0,0.0,0.0,0.0,0.0,0.0,0.0,15.0
25.97,0.0,0.0,0.0,0.0,0.0,0.0,0.0,15.0
25.91,0.0,0.0,0.0,0.0,0.0,0.0,0.0,15.0
25.93,0.0,0.0,0.0,0.0,0.0,0.0,0.0,15.0
25.93,0.0,0.0,0.0,0.0,0.0,0.0,0.0,15.0
25.93,0.0,0.0,0.0,0.0,0.0,0.0,0.0,15.0
25.91,0.0,0.0,0.0,0.0,0.0,0.0,0.0,15.0
25.91,0.0,0.0,0.0,0.0,0.0,0.0,0.0,15.0
25.87,0.0,0.0,0.0,0.0,0.0,0.0,0.0,15.0
25.93,0.0,0.0,0.0,0.0,0.0,0.0,0.0,15.0
25.87,0.0,0.0,0.0,0.0,0.0,0.0,0.0,15.0
25.91,0.0,0.0,0.0,0.0,0.0,0.0,0.0,15.0
25.93,0.0,0.0,0.0,0.0,0.0,0.0,0.0,15.0
25.85,0.0,0.0,0.0,0.0,0.0,0.0,0.0,15.0
25.93,0.0,0.0,0.0,0.0,0.0,0.0,0.0,15.0
26.05,0.0,0.0,0.0,0.0,0.0,0.0,0.0,15.0
26.27,0.0,0.0,0.0,0.0,33.0,0.0,0.0,15.0
26.35,0.0,0.0,0.0,0.0,0.0,0.0,0.0,15.0
26.35,0.0,0.0,0.0,0.0,0.0,0.0,0.0,15.0
26.29,0.0,0.0,0.0,0.0,0.0,0.0,0.0,15.0
26.21,0.0,0.0,0.0,0.0,0.0,0.0,0.0,20.0
26.27,0.0,0.0,0.0,0.0,0.0,0.0,0.0,30.0
26.09,0.0,0.0,0.0,0.0,0.0,0.0,0.0,39.0
26.15,0.0,0.0,0.0,0.0,0.0,0.0,0.0,49.0
26.27,0.0,0.0,0.0,0.0,0.0,0.0,0.0,60.0
26.21,0.0,0.0,0.0,0.0,0.0,0.0,0.0,70.0
26.21,0.0,0.0,0.0,0.0,0.0,0.0,0.0,79.0
26.17,0.0,0.0,0.0,0.0,0.0,0.0,0.0,89.0
26.11,0.0,0.0,0.0,0.0,0.0,0.0,290.0,99.0
26.15,0.0,0.0,0.0,0.0,0.0,0.0,503.0,100.0
26.11,0.0,0.0,0.0,0.0,0.0,0.0,513.0,100.0
26.15,0.0,0.0,0.0,0.0,0.0,0.0,493.0,100.0
26.15,0.0,0.0,0.0,0.0,0.0,0.0,453.0,100.0
26.27,0.0,0.0,0.0,0.0,0.0,0.0,461.0,100.0
26.23,0.0,0.0,0.0,0.0,0.0,0.0,472.0,100.0
26.17,0.0,0.0,0.0,0.0,0.0,0.0,462.0,100.0
26.17,0.0,0.0,0.0,0.0,0.0,0.0,475.0,100.0
26.21,0.0,0.0,0.0,0.0,0.0,0.0,456.0,100.0
26.27,0.0,0.0,0.0,0.0,0.0,0.0,489.0,100.0
26.17,0.0,3.0,0.0,0.0,0.0,0.0,492.0,100.0
26.11,0.0,20.0,0.0,0.0,0.0,0.0,678.0,100.0
26.21,0.0,45.0,0.0,0.0,0.0,0.0,706.0,100.0
26.15,0.0,48.0,0.0,0.0,0.0,0.0,724.0,100.0
26.17,379.0,50.0,0.0,0.0,0.0,0.0,749.0,100.0
26.23,0.0,102.0,0.0,0.0,0.0,0.0,777.0,100.0
26.27,0.0,0.0,0.0,0.0,0.0,0.0,809.0,100.0
26.23,0.0,94.0,0.0,0.0,0.0,0.0,815.0,100.0
26.17,0.0,94.0,0.0,0.0,0.0,0.0,825.0,100.0
26.17,0.0,95.0,0.0,0.0,0.0,0.0,830.0,100.0
26.17,0.0,91.0,0.0,0.0,0.0,0.0,840.0,100.0
26.23,0.0,88.0,0.0,0.0,0.0,0.0,841.0,100.0
26.17,0.0,110.0,0.0,0.0,0.0,0.0,852.0,100.0
26.17,0.0,90.0,0.0,0.0,0.0,0.0,863.0,100.0
26.17,0.0,107.0,0.0,0.0,0.0,0.0,868.0,100.0
26.21,0.0,107.0,0.0,0.0,0.0,0.0,867.0,100.0
26.17,0.0,100.0,0.0,0.0,0.0,0.0,880.0,100.0
26.27,0.0,93.0,0.0,0.0,0.0,0.0,895.0,100.0
26.21,0.0,91.0,0.0,0.0,0.0,0.0,898.0,100.0
26.23,0.0,96.0,0.0,0.0,0.0,0.0,904.0,100.0
26.17,0.0,105.0,0.0,0.0,0.0,0.0,917.0,100.0
26.15,0.0,100.0,0.0,0.0,0.0,0.0,909.0,100.0
26.21,0.0,91.0,0.0,0.0,0.0,0.0,921.0,100.0
26.27,0.0,44.0,0.0,0.0,0.0,0.0,919.0,100.0
26.21,0.0,99.0,0.0,0.0,0.0,0.0,928.0,100.0
26.17,0.0,93.0,0.0,0.0,0.0,0.0,924.0,100.0
26.17,0.0,0.0,0.0,0.0,0.0,0.0,929.0,100.0
26.23,0.0,96.0,0.0,0.0,0.0,0.0,929.0,100.0
26.11,0.0,0.0,0.0,0.0,0.0,0.0,922.0,100.0
26.21,0.0,64.0,0.0,0.0,0.0,0.0,926.0,100.0
26.17,0.0,98.0,0.0,0.0,0.0,0.0,925.0,100.0
26.17,0.0,99.0,0.0,0.0,0.0,0.0,925.0,100.0
26.17,0.0,94.0,0.0,0.0,0.0,0.0,922.0,100.0
26.17,0.0,94.0,0.0,0.0,0.0,0.0,926.0,100.0
26.15,0.0,98.0,0.0,0.0,0.0,0.0,922.0,100.0
26.17,0.0,64.0,0.0,0.0,0.0,0.0,914.0,100.0
26.17,0.0,94.0,0.0,0.0,0.0,0.0,924.0,100.0
26.21,0.0,0.0,0.0,0.0,0.0,0.0,922.0,100.0
26.11,0.0,95.0,0.0,0.0,0.0,0.0,929.0,100.0
26.17,0.0,0.0,0.0,0.0,0.0,0.0,919.0,100.0
26.21,0.0,89.0,0.0,0.0,0.0,0.0,929.0,100.0
26.21,0.0,106.0,0.0,0.0,0.0,0.0,936.0,100.0
26.23,0.0,32.0,0.0,0.0,0.0,0.0,937.0,100.0
26.15,0.0,101.0,0.0,0.0,0.0,0.0,946.0,100.0
26.17,0.0,90.0,0.0,0.0,0.0,0.0,953.0,100.0
26.17,0.0,99.0,0.0,0.0,0.0,0.0,940.0,100.0
26.21,0.0,101.0,0.0,0.0,0.0,0.0,952.0,100.0
26.15,0.0,100.0,0.0,0.0,0.0,0.0,945.0,100.0
26.15,0.0,96.0,0.0,0.0,0.0,0.0,953.0,100.0
26.15,0.0,98.0,0.0,0.0,0.0,0.0,950.0,100.0
26.15,0.0,82.0,0.0,0.0,0.0,0.0,955.0,100.0
26.15,0.0,107.0,0.0,0.0,0.0,0.0,951.0,100.0
26.15,0.0,105.0,0.0,0.0,0.0,0.0,954.0,100.0
26.11,0.0,105.0,0.0,0.0,0.0,0.0,949.0,100.0
26.21,0.0,106.0,0.0,0.0,0.0,0.0,951.0,100.0
26.15,0.0,102.0,0.0,0.0,0.0,0.0,951.0,100.0
26.21,0.0,96.0,0.0,0.0,0.0,0.0,952.0,100.0
26.21,0.0,109.0,0.0,0.0,0.0,0.0,956.0,100.0
26.23,0.0,96.0,0.0,0.0,0.0,0.0,944.0,100.0
26.21,0.0,97.0,0.0,0.0,0.0,0.0,954.0,100.0
26.21,0.0,100.0,0.0,0.0,0.0,0.0,946.0,100.0
26.17,0.0,106.0,0.0,0.0,0.0,0.0,953.0,100.0
26.21,0.0,103.0,0.0,0.0,0.0,0.0,946.0,100.0
26.17,0.0,101.0,0.0,0.0,0.0,0.0,953.0,100.0
26.21,0.0,102.0,0.0,0.0,0.0,0.0,951.0,100.0
26.23,0.0,16.0,0.0,0.0,0.0,0.0,951.0,100.0
26.21,0.0,107.0,0.0,0.0,0.0,0.0,947.0,100.0
26.23,0.0,101.0,0.0,0.0,0.0,0.0,953.0,100.0
26.15,0.0,99.0,0.0,0.0,0.0,0.0,954.0,100.0
26.23,0.0,112.0,0.0,0.0,0.0,0.0,951.0,100.0
26.21,0.0,100.0,0.0,0.0,0.0,0.0,949.0,100.0
26.23,0.0,64.0,0.0,0.0,0.0,0.0,948.0,100.0
26.21,0.0,182.0,0.0,0.0,0.0,0.0,962.0,100.0
26.21,0.0,102.0,0.0,0.0,0.0,0.0,954.0,100.0
26.21,0.0,107.0,0.0,0.0,0.0,0.0,958.0,100.0
26.17,0.0,91.0,0.0,0.0,0.0,0.0,954.0,100.0
26.21,0.0,0.0,0.0,0.0,0.0,0.0,0.0,15.0
26.11,0.0,0.0,0.0,0.0,0.0,0.0,0.0,15.0
25.79,0.0,0.0,0.0,0.0,0.0,0.0,0.0,15.0
25.81,0.0,0.0,0.0,0.0,0.0,0.0,0.0,15.0
25.93,0.0,0.0,0.0,0.0,0.0,0.0,0.0,15.0
26.11,0.0,0.0,0.0,0.0,0.0,0.0,0.0,15.0
26.15,0.0,0.0,0.0,0.0,0.0,0.0,0.0,15.0
26.27,0.0,0.0,0.0,0.0,0.0,0.0,0.0,15.0
25.75,0.0,0.0,0.0,0.0,0.0,0.0,0.0,15.0
25.79,0.0,0.0,0.0,0.0,0.0,0.0,0.0,15.0
25.81,0.0,0.0,0.0,0.0,0.0,0.0,0.0,15.0
25.81,0.0,0.0,0.0,0.0,0.0,0.0,0.0,15.0
25.87,0.0,0.0,0.0,0.0,0.0,0.0,0.0,15.0
25.79,0.0,0.0,0.0,0.0,0.0,0.0,0.0,15.0
25.81,0.0,0.0,0.0,0.0,0.0,0.0,0.0,15.0
25.81,0.0,0.0,0.0,0.0,0.0,0.0,0.0,15.0
25.81,0.0,0.0,0.0,0.0,0.0,0.0,0.0,15.0
25.87,0.0,0.0,0.0,0.0,0.0,0.0,0.0,15.0
25.85,0.0,0.0,0.0,0.0,0.0,0.0,0.0,15.0
25.85,0.0,0.0,0.0,0.0,0.0,0.0,0.0,15.0
25.87,0.0,0.0,0.0,0.0,0.0,0.0,0.0,15.0
25.91,0.0,0.0,0.0,0.0,0.0,0.0,0.0,15.0
25.93,0.0,0.0,0.0,0.0,0.0,0.0,0.0,15.0
25.97,0.0,0.0,0.0,0.0,0.0,0.0,0.0,15.0
25.93,0.0,0.0,0.0,0.0,0.0,0.0,0.0,15.0
25.93,0.0,0.0,0.0,0.0,0.0,0.0,0.0,15.0
25.91,0.0,0.0,0.0,0.0,0.0,0.0,0.0,15.0
25.91,0.0,0.0,0.0,0.0,0.0,0.0,0.0,15.0
25.93,0.0,0.0,0.0,0.0,0.0,0.0,0.0,15.0
26.03,0.0,0.0,0.0,0.0,0.0,0.0,0.0,15.0
26.09,0.0,0.0,0.0,0.0,0.0,0.0,0.0,15.0
26.09,0.0,0.0,0.0,0.0,0.0,0.0,0.0,15.0
26.03,0.0,0.0,0.0,0.0,0.0,0.0,0.0,15.0
25.99,0.0,0.0,0.0,0.0,0.0,0.0,0.0,15.0
25.99,0.0,0.0,0.0,0.0,0.0,0.0,0.0,15.0
25.97,0.0,0.0,0.0,0.0,0.0,0.0,0.0,15.0
25.93,0.0,0.0,0.0,0.0,0.0,0.0,0.0,15.0
25.93,0.0,0.0,0.0,0.0,0.0,0.0,0.0,15.0
25.99,0.0,0.0,0.0,0.0,0.0,0.0,0.0,15.0
25.97,0.0,0.0,0.0,0.0,0.0,0.0,0.0,15.0
25.99,0.0,0.0,0.0,0.0,0.0,0.0,0.0,15.0
26.11,0.0,0.0,0.0,0.0,0.0,0.0,0.0,15.0
26.29,0.0,0.0,0.0,0.0,0.0,0.0,0.0,15.0
26.35,0.0,0.0,0.0,0.0,0.0,0.0,0.0,15.0
26.61,0.0,0.0,0.0,0.0,0.0,0.0,0.0,15.0
32.03,0.0,0.0,0.0,0.0,0.0,0.0,0.0,15.0
34.55,0.0,0.0,0.0,0.0,0.0,0.0,0.0,15.0
35.97,0.0,0.0,0.0,0.0,0.0,0.0,0.0,15.0
36.61,0.0,0.0,0.0,0.0,0.0,0.0,0.0,15.0
36.73,0.0,0.0,0.0,0.0,0.0,0.0,0.0,16.0
36.95,0.0,0.0,0.0,0.0,0.0,0.0,0.0,25.0
35.21,0.0,0.0,0.0,0.0,0.0,0.0,0.0,33.0
36.73,0.0,0.0,0.0,0.0,0.0,0.0,0.0,43.0
37.55,0.0,0.0,0.0,0.0,0.0,0.0,0.0,52.0
37.91,0.0,0.0,0.0,0.0,0.0,0.0,270.0,61.0
37.91,0.0,0.0,0.0,0.0,0.0,0.0,1092.0,72.0
37.87,0.0,176.0,0.0,0.0,16.0,0.0,1787.0,81.0
37.85,0.0,199.0,0.0,0.0,10.0,0.0,1793.0,86.0
37.83,0.0,146.0,0.0,0.0,0.0,0.0,1621.0,86.0
37.79,0.0,0.0,0.0,0.0,0.0,0.0,1313.0,86.0
37.67,0.0,0.0,0.0,0.0,0.0,170.0,1297.0,86.0
37.67,0.0,0.0,0.0,0.0,0.0,215.0,1312.0,86.0
37.63,0.0,0.0,0.0,0.0,0.0,274.0,1329.0,86.0
37.63,0.0,0.0,0.0,0.0,0.0,301.0,1344.0,86.0
37.67,0.0,0.0,0.0,0.0,0.0,205.0,1334.0,86.0
37.67,0.0,0.0,0.0,0.0,0.0,316.0,1082.0,86.0
37.69,0.0,0.0,0.0,0.0,0.0,382.0,1116.0,86.0
37.67,0.0,0.0,0.0,0.0,0.0,484.0,1061.0,86.0
37.69,0.0,0.0,0.0,0.0,0.0,560.0,1137.0,86.0
37.75,0.0,0.0,0.0,0.0,0.0,619.0,1158.0,86.0
37.75,0.0,0.0,0.0,0.0,0.0,598.0,1176.0,86.0
37.71,0.0,0.0,0.0,0.0,0.0,626.0,1192.0,86.0
37.83,0.0,0.0,0.0,0.0,0.0,655.0,1202.0,86.0
37.83,0.0,0.0,0.0,0.0,0.0,653.0,1218.0,86.0
37.83,0.0,0.0,0.0,0.0,0.0,659.0,1234.0,86.0
37.85,0.0,0.0,16.0,0.0,0.0,675.0,1224.0,86.0
37.77,0.0,0.0,213.0,0.0,0.0,641.0,1231.0,86.0
37.79,0.0,0.0,43.0,0.0,0.0,686.0,1235.0,86.0
37.83,0.0,0.0,53.0,0.0,0.0,734.0,1250.0,86.0
37.77,0.0,0.0,46.0,0.0,0.0,677.0,1180.0,86.0
37.71,0.0,0.0,81.0,0.0,0.0,624.0,1183.0,86.0
37.75,0.0,0.0,78.0,0.0,0.0,570.0,1141.0,86.0
37.71,0.0,0.0,66.0,0.0,0.0,546.0,1153.0,86.0
37.71,0.0,0.0,62.0,0.0,0.0,541.0,1160.0,86.0
37.75,0.0,0.0,23.0,0.0,0.0,272.0,1150.0,86.0
37.69,0.0,0.0,0.0,0.0,0.0,217.0,1128.0,86.0
37.69,0.0,0.0,0.0,0.0,0.0,163.0,1184.0,86.0
37.67,0.0,0.0,0.0,0.0,0.0,112.0,1181.0,86.0
37.67,0.0,0.0,0.0,0.0,0.0,115.0,1240.0,86.0
37.67,0.0,0.0,0.0,0.0,0.0,186.0,1357.0,86.0
37.63,0.0,0.0,0.0,0.0,0.0,402.0,1551.0,86.0
37.63,0.0,0.0,0.0,0.0,88.0,416.0,1552.0,86.0
37.67,0.0,0.0,0.0,0.0,0.0,407.0,1558.0,86.0
37.69,0.0,0.0,0.0,0.0,0.0,405.0,1561.0,86.0
37.69,0.0,0.0,0.0,0.0,0.0,310.0,1568.0,86.0
37.67,0.0,0.0,0.0,0.0,0.0,395.0,1562.0,86.0
37.67,0.0,0.0,0.0,0.0,0.0,391.0,1568.0,86.0
37.75,0.0,0.0,0.0,0.0,0.0,385.0,1562.0,86.0
37.67,0.0,0.0,0.0,0.0,0.0,377.0,1560.0,86.0
37.77,0.0,0.0,0.0,0.0,0.0,368.0,1566.0,86.0
37.75,0.0,0.0,0.0,0.0,0.0,366.0,1566.0,86.0
37.75,0.0,0.0,0.0,0.0,0.0,370.0,1567.0,86.0
37.69,0.0,0.0,0.0,0.0,0.0,376.0,1572.0,86.0
37.69,0.0,0.0,0.0,0.0,0.0,381.0,1569.0,86.0
37.79,0.0,0.0,0.0,0.0,0.0,374.0,1565.0,86.0
37.77,0.0,0.0,0.0,0.0,0.0,373.0,1575.0,86.0
37.75,0.0,0.0,0.0,0.0,0.0,369.0,1569.0,86.0
37.79,0.0,0.0,0.0,0.0,0.0,372.0,1570.0,86.0
37.77,0.0,0.0,0.0,0.0,0.0,446.0,1570.0,86.0
37.75,0.0,0.0,0.0,0.0,0.0,368.0,1563.0,86.0
37.85,0.0,0.0,0.0,0.0,0.0,367.0,1573.0,86.0
37.79,0.0,0.0,0.0,0.0,0.0,372.0,1565.0,86.0
37.83,0.0,0.0,0.0,0.0,0.0,362.0,1564.0,86.0
37.79,0.0,0.0,0.0,0.0,0.0,371.0,1568.0,86.0
37.83,0.0,0.0,0.0,0.0,0.0,362.0,1574.0,86.0
37.79,0.0,0.0,0.0,0.0,0.0,368.0,1572.0,86.0
37.79,0.0,0.0,0.0,0.0,0.0,365.0,1582.0,86.0
37.79,196.0,0.0,0.0,0.0,0.0,368.0,1576.0,86.0
37.79,0.0,0.0,0.0,0.0,0.0,368.0,1577.0,86.0
37.79,0.0,0.0,0.0,0.0,0.0,364.0,1576.0,86.0
37.79,0.0,0.0,0.0,0.0,0.0,364.0,1579.0,86.0
37.79,0.0,0.0,0.0,0.0,0.0,359.0,1574.0,86.0
37.85,0.0,0.0,0.0,0.0,0.0,364.0,1569.0,86.0
37.83,0.0,0.0,0.0,0.0,0.0,363.0,1577.0,86.0
37.83,0.0,0.0,0.0,0.0,0.0,365.0,1577.0,86.0
37.79,0.0,0.0,0.0,0.0,0.0,368.0,1580.0,86.0
37.79,0.0,0.0,0.0,0.0,0.0,349.0,1573.0,86.0
37.79,0.0,0.0,0.0,0.0,0.0,367.0,1575.0,86.0
37.79,0.0,0.0,0.0,0.0,0.0,365.0,1580.0,86.0
37.79,0.0,0.0,0.0,0.0,0.0,361.0,1572.0,86.0
37.79,0.0,0.0,0.0,0.0,0.0,359.0,1575.0,86.0
37.79,0.0,0.0,0.0,0.0,0.0,348.0,1576.0,86.0
37.79,0.0,0.0,0.0,0.0,0.0,358.0,1582.0,86.0
37.83,0.0,0.0,0.0,0.0,0.0,359.0,1575.0,86.0
37.83,0.0,0.0,0.0,0.0,0.0,367.0,1575.0,86.0
37.85,0.0,0.0,0.0,0.0,0.0,350.0,1573.0,86.0
37.85,0.0,0.0,0.0,0.0,0.0,358.0,1577.0,86.0
37.79,0.0,0.0,0.0,0.0,0.0,355.0,1582.0,86.0
37.83,0.0,0.0,0.0,0.0,0.0,354.0,1583.0,86.0
37.79,0.0,0.0,0.0,0.0,0.0,368.0,1583.0,86.0
37.83,0.0,0.0,0.0,0.0,0.0,349.0,1582.0,86.0
37.75,0.0,0.0,0.0,0.0,0.0,361.0,1582.0,86.0
37.63,0.0,0.0,0.0,0.0,0.0,368.0,1575.0,86.0
37.61,0.0,0.0,0.0,0.0,0.0,368.0,1578.0,86.0
37.59,0.0,0.0,0.0,0.0,0.0,368.0,1581.0,86.0
37.59,0.0,0.0,0.0,0.0,0.0,361.0,1580.0,86.0
37.53,0.0,0.0,0.0,0.0,0.0,367.0,1582.0,15.0
37.35,0.0,0.0,0.0,0.0,0.0,0.0,41.0,15.0
37.35,0.0,0.0,0.0,0.0,0.0,0.0,0.0,15.0
26.71,0.0,0.0,0.0,0.0,0.0,0.0,0.0,15.0
27.09,0.0,0.0,0.0,0.0,0.0,0.0,0.0,15.0
28.27,0.0,0.0,0.0,0.0,0.0,0.0,0.0,15.0
29.09,0.0,0.0,0.0,0.0,0.0,0.0,0.0,15.0
28.05,0.0,0.0,0.0,0.0,0.0,0.0,0.0,15.0
28.37,0.0,0.0,0.0,0.0,0.0,0.0,0.0,15.0
27.69,0.0,0.0,0.0,0.0,0.0,0.0,0.0,15.0
26.27,0.0,0.0,0.0,0.0,0.0,0.0,0.0,15.0
26.27,0.0,0.0,0.0,0.0,0.0,0.0,0.0,15.0
26.27,0.0,0.0,0.0,0.0,0.0,0.0,0.0,15.0
26.21,0.0,0.0,0.0,0.0,0.0,0.0,0.0,15.0
26.11,0.0,0.0,0.0,0.0,0.0,0.0,0.0,15.0
26.27,0.0,0.0,0.0,0.0,0.0,0.0,0.0,15.0
26.31,0.0,0.0,0.0,0.0,0.0,0.0,0.0,15.0
26.27,0.0,0.0,0.0,0.0,0.0,0.0,0.0,15.0
26.23,0.0,0.0,0.0,0.0,0.0,0.0,0.0,15.0
26.29,0.0,0.0,0.0,0.0,0.0,0.0,0.0,15.0
26.27,0.0,0.0,0.0,0.0,0.0,0.0,0.0,15.0
26.31,0.0,0.0,0.0,0.0,0.0,0.0,0.0,15.0
26.05,0.0,0.0,0.0,0.0,0.0,0.0,0.0,15.0
25.99,0.0,0.0,0.0,0.0,0.0,0.0,0.0,15.0
25.99,0.0,0.0,0.0,0.0,0.0,0.0,0.0,15.0
26.09,0.0,0.0,0.0,0.0,0.0,0.0,0.0,15.0
26.15,0.0,0.0,0.0,0.0,0.0,0.0,0.0,15.0
26.11,0.0,0.0,0.0,0.0,0.0,0.0,0.0,15.0
26.11,0.0,0.0,0.0,0.0,0.0,0.0,0.0,15.0
26.05,0.0,0.0,0.0,0.0,0.0,0.0,0.0,15.0
26.09,0.0,0.0,0.0,0.0,0.0,0.0,0.0,15.0
26.11,0.0,0.0,0.0,0.0,0.0,0.0,0.0,15.0
26.11,0.0,0.0,0.0,0.0,0.0,0.0,0.0,15.0
26.05,0.0,0.0,0.0,0.0,0.0,0.0,0.0,15.0
25.93,0.0,0.0,0.0,0.0,0.0,0.0,0.0,15.0
25.97,68.0,0.0,0.0,0.0,0.0,0.0,0.0,15.0
25.99,0.0,0.0,0.0,0.0,0.0,0.0,0.0,15.0
25.97,0.0,0.0,0.0,0.0,0.0,0.0,0.0,15.0
25.99,0.0,0.0,0.0,0.0,0.0,0.0,0.0,15.0
26.03,0.0,0.0,0.0,0.0,0.0,0.0,0.0,15.0
26.09,0.0,0.0,0.0,0.0,0.0,0.0,0.0,15.0
26.05,0.0,0.0,0.0,0.0,0.0,0.0,0.0,15.0
26.03,0.0,0.0,0.0,0.0,0.0,0.0,0.0,15.0
26.09,0.0,0.0,0.0,0.0,0.0,0.0,0.0,15.0
26.03,0.0,0.0,0.0,0.0,0.0,0.0,0.0,15.0
26.15,0.0,0.0,0.0,0.0,0.0,0.0,0.0,15.0
26.17,0.0,0.0,0.0,0.0,0.0,0.0,0.0,15.0
26.47,0.0,0.0,0.0,0.0,0.0,0.0,0.0,15.0
26.49,0.0,0.0,0.0,0.0,0.0,0.0,0.0,15.0
26.37,0.0,0.0,0.0,0.0,0.0,0.0,0.0,15.0
26.65,0.0,0.0,0.0,0.0,0.0,0.0,0.0,15.0
26.55,0.0,0.0,0.0,0.0,0.0,0.0,0.0,15.0
26.47,0.0,0.0,0.0,0.0,0.0,0.0,0.0,15.0
26.61,0.0,0.0,0.0,0.0,0.0,0.0,0.0,15.0
26.61,0.0,0.0,0.0,0.0,0.0,0.0,0.0,17.0
26.61,0.0,0.0,0.0,0.0,0.0,0.0,0.0,26.0
26.67,0.0,0.0,0.0,0.0,0.0,0.0,0.0,37.0
26.55,0.0,0.0,0.0,0.0,0.0,0.0,0.0,47.0
26.55,0.0,0.0,0.0,0.0,0.0,0.0,0.0,56.0
26.53,0.0,0.0,0.0,0.0,0.0,0.0,0.0,66.0
26.55,0.0,0.0,0.0,0.0,0.0,0.0,0.0,75.0
26.41,0.0,0.0,0.0,0.0,0.0,0.0,0.0,85.0
26.47,0.0,0.0,0.0,0.0,0.0,0.0,0.0,94.0
26.43,0.0,0.0,0.0,0.0,0.0,0.0,0.0,100.0
26.41,0.0,0.0,0.0,0.0,0.0,0.0,0.0,100.0
26.43,0.0,0.0,0.0,0.0,0.0,0.0,0.0,100.0
26.37,0.0,0.0,0.0,0.0,0.0,0.0,0.0,100.0
26.41,0.0,0.0,0.0,0.0,0.0,0.0,0.0,100.0
26.37,0.0,0.0,0.0,0.0,0.0,0.0,0.0,100.0
26.37,0.0,0.0,0.0,0.0,0.0,0.0,0.0,100.0
26.41,0.0,0.0,0.0,0.0,0.0,0.0,0.0,100.0
26.35,0.0,0.0,0.0,0.0,0.0,0.0,0.0,100.0
26.41,0.0,0.0,0.0,0.0,0.0,0.0,0.0,100.0
26.37,0.0,0.0,0.0,0.0,0.0,0.0,0.0,100.0
26.35,0.0,0.0,0.0,0.0,0.0,0.0,0.0,100.0
26.41,0.0,0.0,0.0,0.0,0.0,0.0,0.0,100.0
26.41,0.0,0.0,0.0,0.0,0.0,0.0,0.0,100.0
26.37,0.0,0.0,0.0,0.0,0.0,0.0,0.0,100.0
26.41,0.0,0.0,0.0,0.0,0.0,0.0,0.0,100.0
26.35,0.0,0.0,0.0,0.0,0.0,0.0,0.0,100.0
26.47,0.0,0.0,0.0,0.0,0.0,0.0,0.0,100.0
26.49,0.0,0.0,0.0,0.0,0.0,0.0,0.0,100.0
26.43,0.0,0.0,0.0,0.0,0.0,0.0,0.0,100.0
26.43,0.0,0.0,0.0,0.0,0.0,0.0,0.0,100.0
26.37,0.0,0.0,0.0,0.0,0.0,0.0,0.0,100.0
26.37,0.0,0.0,0.0,0.0,0.0,0.0,0.0,100.0
26.43,0.0,0.0,0.0,0.0,0.0,0.0,0.0,100.0
26.37,0.0,0.0,0.0,0.0,0.0,0.0,0.0,100.0
26.37,0.0,0.0,0.0,0.0,0.0,0.0,0.0,100.0
26.37,0.0,0.0,0.0,0.0,0.0,0.0,0.0,100.0
26.35,0.0,0.0,0.0,0.0,0.0,0.0,0.0,100.0
26.35,0.0,0.0,0.0,0.0,0.0,0.0,0.0,100.0
26.41,0.0,0.0,0.0,0.0,0.0,0.0,0.0,100.0
26.37,0.0,0.0,0.0,0.0,0.0,0.0,0.0,100.0
26.35,0.0,0.0,0.0,0.0,0.0,0.0,0.0,100.0
26.37,0.0,0.0,0.0,0.0,0.0,0.0,0.0,100.0
26.37,0.0,0.0,0.0,0.0,0.0,0.0,0.0,100.0
26.35,0.0,0.0,0.0,0.0,0.0,0.0,0.0,100.0
26.35,0.0,0.0,0.0,0.0,0.0,0.0,0.0,100.0
26.35,0.0,0.0,0.0,0.0,0.0,0.0,0.0,100.0
26.35,0.0,0.0,0.0,0.0,0.0,0.0,0.0,100.0
26.29,0.0,0.0,0.0,0.0,0.0,0.0,0.0,100.0
26.35,0.0,0.0,0.0,0.0,0.0,0.0,0.0,100.0
26.35,0.0,0.0,0.0,0.0,0.0,0.0,0.0,100.0
26.35,0.0,0.0,0.0,0.0,0.0,0.0,0.0,100.0
26.27,0.0,0.0,0.0,0.0,0.0,0.0,0.0,100.0
26.31,0.0,0.0,0.0,0.0,0.0,0.0,0.0,100.0
26.41,0.0,0.0,0.0,0.0,0.0,0.0,0.0,100.0
26.31,0.0,0.0,0.0,0.0,0.0,0.0,0.0,100.0
26.37,0.0,0.0,0.0,0.0,0.0,0.0,0.0,100.0
26.35,0.0,0.0,0.0,0.0,0.0,0.0,0.0,100.0
26.35,0.0,0.0,0.0,0.0,0.0,0.0,0.0,100.0
26.35,0.0,0.0,0.0,0.0,0.0,0.0,0.0,100.0
26.35,0.0,0.0,0.0,0.0,0.0,0.0,0.0,100.0
26.35,0.0,0.0,0.0,0.0,0.0,0.0,0.0,100.0
26.35,0.0,0.0,0.0,0.0,0.0,0.0,0.0,100.0
26.31,0.0,0.0,0.0,0.0,0.0,0.0,0.0,100.0
26.35,0.0,0.0,0.0,0.0,0.0,0.0,0.0,100.0
26.35,0.0,0.0,0.0,0.0,0.0,0.0,0.0,100.0
26.35,0.0,0.0,0.0,0.0,0.0,0.0,0.0,100.0
26.35,0.0,0.0,0.0,0.0,0.0,0.0,0.0,100.0
26.35,0.0,0.0,0.0,0.0,0.0,0.0,0.0,100.0
26.35,0.0,0.0,0.0,0.0,0.0,0.0,0.0,100.0
26.35,0.0,0.0,0.0,0.0,0.0,0.0,0.0,100.0
26.35,0.0,0.0,0.0,0.0,0.0,0.0,0.0,100.0
26.37,0.0,0.0,0.0,0.0,0.0,0.0,0.0,100.0
26.31,0.0,0.0,0.0,0.0,0.0,0.0,0.0,100.0
26.35,0.0,0.0,0.0,0.0,0.0,0.0,0.0,100.0
26.35,0.0,0.0,0.0,0.0,0.0,0.0,0.0,100.0
26.35,0.0,0.0,0.0,0.0,0.0,0.0,0.0,100.0
26.35,0.0,0.0,0.0,0.0,0.0,0.0,0.0,100.0
26.35,0.0,0.0,0.0,0.0,0.0,0.0,0.0,100.0
26.35,0.0,0.0,0.0,0.0,0.0,0.0,0.0,100.0
26.31,0.0,0.0,0.0,0.0,0.0,0.0,0.0,100.0
26.31,0.0,0.0,0.0,0.0,0.0,0.0,0.0,100.0
26.35,0.0,0.0,0.0,0.0,0.0,0.0,0.0,100.0
26.35,0.0,0.0,0.0,0.0,0.0,0.0,0.0,100.0
26.31,0.0,0.0,0.0,0.0,0.0,0.0,0.0,100.0
26.35,0.0,0.0,0.0,0.0,0.0,0.0,0.0,100.0
26.35,0.0,0.0,0.0,0.0,0.0,0.0,0.0,100.0
26.35,0.0,0.0,0.0,0.0,0.0,0.0,0.0,100.0
26.35,0.0,0.0,0.0,0.0,0.0,0.0,0.0,100.0
26.35,0.0,0.0,0.0,0.0,0.0,0.0,0.0,100.0
26.35,0.0,0.0,0.0,0.0,0.0,0.0,0.0,100.0
26.35,0.0,0.0,0.0,0.0,0.0,0.0,0.0,100.0
26.29,0.0,0.0,0.0,0.0,0.0,0.0,0.0,100.0
26.31,0.0,0.0,0.0,0.0,32.0,0.0,0.0,15.0
26.31,0.0,0.0,0.0,0.0,0.0,0.0,0.0,15.0
26.53,0.0,0.0,0.0,0.0,0.0,0.0,0.0,15.0
26.23,0.0,0.0,0.0,0.0,0.0,0.0,0.0,15.0
26.21,0.0,0.0,0.0,0.0,0.0,0.0,0.0,15.0
26.59,0.0,20.0,0.0,0.0,0.0,0.0,0.0,15.0
27.47,0.0,0.0,0.0,0.0,0.0,0.0,0.0,15.0
27.55,0.0,0.0,0.0,0.0,0.0,0.0,0.0,15.0
26.55,0.0,0.0,0.0,0.0,0.0,0.0,0.0,15.0
26.37,0.0,0.0,0.0,0.0,0.0,0.0,0.0,15.0
26.21,0.0,0.0,0.0,0.0,0.0,0.0,0.0,15.0
26.21,0.0,0.0,0.0,0.0,0.0,0.0,0.0,15.0
26.21,0.0,0.0,0.0,0.0,0.0,0.0,0.0,15.0
26.23,0.0,0.0,0.0,0.0,0.0,0.0,0.0,15.0
26.05,0.0,0.0,0.0,0.0,0.0,0.0,0.0,15.0
25.87,0.0,0.0,0.0,0.0,0.0,0.0,0.0,15.0
25.91,0.0,0.0,0.0,0.0,0.0,0.0,0.0,15.0
25.81,0.0,0.0,0.0,0.0,0.0,0.0,0.0,15.0
25.87,0.0,0.0,0.0,0.0,0.0,0.0,0.0,15.0
25.85,0.0,0.0,0.0,0.0,0.0,0.0,0.0,15.0
25.85,0.0,0.0,0.0,0.0,0.0,0.0,0.0,15.0
25.85,0.0,0.0,0.0,0.0,0.0,0.0,0.0,15.0
25.91,0.0,0.0,0.0,0.0,0.0,0.0,0.0,15.0
25.97,0.0,0.0,0.0,0.0,0.0,0.0,0.0,15.0
25.99,0.0,0.0,0.0,0.0,0.0,0.0,0.0,15.0
26.03,0.0,0.0,0.0,0.0,0.0,0.0,0.0,15.0
26.03,0.0,0.0,0.0,0.0,0.0,0.0,0.0,15.0
26.05,0.0,0.0,0.0,0.0,0.0,0.0,0.0,15.0
25.97,0.0,0.0,0.0,0.0,0.0,0.0,0.0,15.0
25.97,0.0,0.0,0.0,0.0,0.0,0.0,0.0,15.0
25.93,0.0,0.0,0.0,0.0,0.0,0.0,0.0,15.0
26.05,0.0,0.0,0.0,0.0,0.0,0.0,0.0,15.0
26.03,0.0,0.0,0.0,0.0,0.0,0.0,0.0,15.0
25.99,0.0,0.0,0.0,0.0,0.0,0.0,0.0,15.0
26.05,0.0,0.0,0.0,0.0,0.0,0.0,0.0,15.0
26.11,0.0,0.0,0.0,0.0,0.0,0.0,0.0,15.0
26.03,0.0,0.0,0.0,0.0,0.0,0.0,0.0,15.0
26.11,0.0,0.0,0.0,0.0,0.0,0.0,0.0,15.0
26.03,0.0,0.0,0.0,0.0,0.0,0.0,0.0,15.0
26.09,0.0,0.0,0.0,0.0,0.0,0.0,0.0,15.0
26.03,0.0,0.0,0.0,0.0,0.0,0.0,0.0,15.0
25.97,0.0,0.0,0.0,0.0,0.0,0.0,0.0,15.0
25.99,0.0,0.0,0.0,0.0,0.0,0.0,0.0,15.0
25.93,0.0,0.0,0.0,0.0,0.0,0.0,0.0,15.0
25.93,0.0,0.0,0.0,0.0,0.0,0.0,0.0,15.0
25.97,0.0,0.0,0.0,0.0,0.0,0.0,0.0,15.0
25.97,0.0,0.0,0.0,0.0,0.0,0.0,0.0,15.0
26.09,0.0,0.0,0.0,0.0,0.0,0.0,0.0,15.0
25.91,0.0,0.0,0.0,0.0,0.0,0.0,0.0,15.0
25.85,0.0,0.0,0.0,0.0,0.0,0.0,0.0,15.0
25.87,0.0,0.0,0.0,0.0,0.0,0.0,0.0,15.0
25.93,0.0,0.0,0.0,0.0,0.0,0.0,0.0,15.0
25.87,0.0,0.0,0.0,0.0,0.0,0.0,0.0,18.0
25.91,0.0,0.0,0.0,0.0,0.0,0.0,0.0,27.0
25.85,0.0,0.0,0.0,0.0,0.0,0.0,0.0,37.0
25.91,0.0,0.0,0.0,0.0,0.0,0.0,0.0,48.0
25.91,0.0,0.0,0.0,0.0,0.0,0.0,0.0,58.0
25.85,0.0,0.0,0.0,0.0,0.0,0.0,0.0,67.0
25.85,0.0,21.0,0.0,0.0,0.0,0.0,0.0,76.0
25.87,0.0,571.0,0.0,0.0,0.0,0.0,1313.0,86.0
25.85,0.0,615.0,0.0,0.0,0.0,0.0,1377.0,96.0
25.81,0.0,624.0,0.0,0.0,16.0,0.0,1406.0,100.0
25.81,0.0,628.0,0.0,0.0,16.0,0.0,1431.0,100.0
25.85,0.0,637.0,0.0,0.0,13.0,0.0,1430.0,100.0
25.79,0.0,638.0,0.0,0.0,13.0,0.0,1429.0,100.0
25.85,0.0,639.0,0.0,0.0,0.0,0.0,1435.0,100.0
25.79,0.0,558.0,0.0,0.0,0.0,0.0,1351.0,100.0
25.79,0.0,554.0,0.0,0.0,0.0,0.0,1360.0,100.0
25.75,0.0,544.0,0.0,0.0,0.0,0.0,1357.0,100.0
25.73,0.0,465.0,0.0,0.0,0.0,0.0,1306.0,100.0
25.79,0.0,466.0,0.0,0.0,0.0,0.0,1300.0,100.0
25.81,0.0,464.0,0.0,0.0,0.0,0.0,1294.0,100.0
25.85,0.0,442.0,0.0,0.0,0.0,0.0,1302.0,100.0
25.79,0.0,525.0,0.0,0.0,0.0,0.0,1228.0,100.0
25.85,0.0,558.0,0.0,0.0,33.0,0.0,1161.0,100.0
25.79,0.0,626.0,0.0,0.0,22.0,0.0,1117.0,100.0
25.85,0.0,646.0,0.0,0.0,80.0,0.0,1066.0,100.0
25.75,0.0,657.0,0.0,0.0,80.0,0.0,1103.0,100.0
25.81,0.0,599.0,0.0,0.0,151.0,0.0,1141.0,100.0
25.85,0.0,690.0,0.0,0.0,115.0,0.0,1172.0,100.0
25.81,0.0,682.0,0.0,0.0,144.0,0.0,1189.0,100.0
25.85,0.0,689.0,0.0,0.0,107.0,0.0,1167.0,100.0
25.81,0.0,699.0,0.0,0.0,128.0,0.0,1215.0,100.0
25.85,0.0,656.0,0.0,0.0,131.0,0.0,1150.0,100.0
25.81,0.0,664.0,0.0,0.0,0.0,0.0,1228.0,100.0
25.79,0.0,1099.0,0.0,0.0,0.0,0.0,1279.0,100.0
25.81,0.0,661.0,0.0,0.0,0.0,0.0,1325.0,100.0
25.79,0.0,523.0,0.0,0.0,0.0,0.0,1385.0,100.0
25.79,0.0,511.0,0.0,0.0,0.0,0.0,1445.0,100.0
25.67,0.0,511.0,0.0,0.0,0.0,0.0,1477.0,100.0
25.69,0.0,374.0,0.0,0.0,343.0,0.0,1537.0,100.0
25.69,0.0,316.0,0.0,0.0,0.0,0.0,1556.0,100.0
25.67,0.0,144.0,0.0,0.0,0.0,0.0,1604.0,100.0
25.67,0.0,44.0,0.0,0.0,0.0,0.0,1620.0,100.0
25.67,0.0,16.0,0.0,0.0,0.0,0.0,1663.0,100.0
25.73,0.0,21.0,0.0,0.0,0.0,0.0,1692.0,100.0
25.69,0.0,32.0,0.0,0.0,0.0,0.0,1706.0,100.0
25.69,0.0,51.0,0.0,0.0,0.0,0.0,1703.0,100.0
25.61,0.0,41.0,0.0,0.0,0.0,0.0,1703.0,100.0
25.67,0.0,42.0,0.0,0.0,0.0,0.0,1704.0,100.0
25.69,0.0,46.0,0.0,0.0,0.0,0.0,1709.0,100.0
25.67,0.0,48.0,0.0,0.0,0.0,0.0,1714.0,100.0
25.79,0.0,38.0,0.0,0.0,0.0,0.0,1710.0,100.0
25.75,0.0,0.0,0.0,0.0,0.0,0.0,1715.0,100.0
25.67,0.0,47.0,0.0,0.0,0.0,0.0,1725.0,100.0
25.67,0.0,45.0,0.0,0.0,0.0,0.0,1722.0,100.0
25.69,0.0,39.0,0.0,0.0,0.0,0.0,1712.0,100.0
25.75,0.0,29.0,0.0,0.0,0.0,0.0,1706.0,100.0
25.61,0.0,22.0,0.0,0.0,0.0,0.0,1718.0,100.0
25.67,0.0,13.0,0.0,0.0,0.0,0.0,1720.0,100.0
25.69,0.0,0.0,0.0,0.0,0.0,0.0,1721.0,100.0
25.63,0.0,0.0,0.0,0.0,0.0,0.0,1716.0,100.0
25.67,0.0,45.0,0.0,0.0,0.0,0.0,1713.0,100.0
25.69,0.0,43.0,0.0,0.0,0.0,0.0,1717.0,100.0
25.67,0.0,25.0,0.0,0.0,0.0,0.0,1716.0,100.0
25.63,0.0,39.0,0.0,0.0,0.0,0.0,1709.0,100.0
25.63,0.0,26.0,0.0,0.0,0.0,0.0,1715.0,100.0
25.67,0.0,35.0,0.0,0.0,0.0,0.0,1720.0,100.0
25.63,0.0,33.0,0.0,0.0,0.0,0.0,1719.0,100.0
25.63,0.0,40.0,0.0,0.0,0.0,0.0,1711.0,100.0
25.61,0.0,41.0,0.0,0.0,0.0,0.0,1710.0,100.0
25.63,0.0,39.0,0.0,0.0,0.0,0.0,1719.0,100.0
25.63,0.0,39.0,0.0,0.0,0.0,0.0,1718.0,100.0
25.67,0.0,39.0,0.0,0.0,0.0,0.0,1707.0,100.0
25.67,0.0,0.0,0.0,0.0,0.0,0.0,1707.0,100.0
25.67,0.0,39.0,0.0,0.0,0.0,0.0,1704.0,100.0
25.59,0.0,36.0,0.0,0.0,0.0,0.0,1697.0,100.0
25.63,0.0,32.0,0.0,0.0,0.0,0.0,1707.0,100.0
25.63,0.0,46.0,0.0,0.0,0.0,0.0,1704.0,100.0
25.55,0.0,40.0,0.0,0.0,0.0,0.0,1721.0,100.0
25.67,0.0,44.0,0.0,0.0,0.0,0.0,1720.0,100.0
25.61,0.0,0.0,0.0,0.0,0.0,0.0,1709.0,100.0
25.67,0.0,44.0,0.0,0.0,0.0,0.0,1705.0,100.0
25.69,0.0,43.0,0.0,0.0,0.0,0.0,1711.0,100.0
25.63,0.0,44.0,0.0,0.0,0.0,0.0,1709.0,100.0
25.63,0.0,32.0,0.0,0.0,0.0,0.0,1715.0,100.0
25.61,0.0,40.0,0.0,0.0,0.0,0.0,1719.0,100.0
25.61,0.0,42.0,0.0,0.0,0.0,0.0,1714.0,100.0
25.59,0.0,42.0,0.0,0.0,0.0,0.0,1713.0,100.0
25.61,0.0,43.0,0.0,0.0,0.0,0.0,1724.0,100.0
25.59,0.0,41.0,0.0,0.0,0.0,0.0,1710.0,100.0
25.63,0.0,48.0,0.0,0.0,0.0,0.0,1714.0,100.0
25.55,0.0,32.0,0.0,0.0,0.0,0.0,1719.0,100.0
25.63,0.0,42.0,0.0,0.0,0.0,0.0,1717.0,100.0
25.55,0.0,39.0,0.0,0.0,0.0,0.0,1708.0,100.0
25.61,0.0,40.0,0.0,0.0,0.0,0.0,1710.0,100.0
25.63,0.0,47.0,0.0,0.0,0.0,0.0,1712.0,100.0
25.59,0.0,0.0,0.0,0.0,0.0,0.0,268.0,15.0
25.63,0.0,0.0,0.0,0.0,0.0,0.0,0.0,15.0
25.91,0.0,0.0,0.0,0.0,0.0,0.0,0.0,15.0
25.99,0.0,0.0,0.0,0.0,0.0,0.0,0.0,15.0
25.99,0.0,0.0,0.0,0.0,0.0,0.0,0.0,15.0
25.97,0.0,0.0,0.0,0.0,0.0,0.0,0.0,15.0
25.91,0.0,0.0,0.0,0.0,0.0,0.0,0.0,15.0
25.93,0.0,0.0,0.0,0.0,0.0,0.0,0.0,15.0
25.93,0.0,0.0,0.0,0.0,0.0,0.0,0.0,15.0
25.93,0.0,0.0,0.0,0.0,0.0,0.0,0.0,15.0
25.97,0.0,0.0,0.0,0.0,0.0,0.0,0.0,15.0
25.81,0.0,0.0,0.0,0.0,0.0,0.0,0.0,15.0
25.79,0.0,0.0,0.0,0.0,0.0,0.0,0.0,15.0
25.73,0.0,0.0,272.0,0.0,0.0,0.0,0.0,15.0
25.81,0.0,0.0,0.0,0.0,0.0,0.0,0.0,15.0
25.75,0.0,0.0,0.0,0.0,0.0,0.0,0.0,15.0
25.73,0.0,0.0,0.0,0.0,0.0,0.0,0.0,15.0
25.79,0.0,0.0,0.0,0.0,0.0,0.0,0.0,15.0
25.99,0.0,0.0,0.0,0.0,0.0,0.0,0.0,15.0
26.05,0.0,0.0,0.0,0.0,0.0,0.0,0.0,15.0
26.29,0.0,0.0,0.0,0.0,0.0,0.0,0.0,15.0
26.43,0.0,0.0,0.0,0.0,0.0,0.0,0.0,15.0
26.49,0.0,0.0,0.0,0.0,0.0,0.0,0.0,15.0
26.49,0.0,0.0,0.0,0.0,0.0,0.0,0.0,15.0
26.61,0.0,0.0,0.0,0.0,0.0,0.0,0.0,15.0
26.55,0.0,0.0,0.0,0.0,0.0,0.0,0.0,15.0
26.61,0.0,0.0,0.0,0.0,0.0,0.0,0.0,15.0
26.77,0.0,0.0,0.0,0.0,0.0,0.0,0.0,15.0
26.83,0.0,0.0,0.0,0.0,0.0,0.0,0.0,15.0
26.71,0.0,0.0,0.0,0.0,0.0,0.0,0.0,15.0
26.65,0.0,0.0,0.0,0.0,0.0,0.0,0.0,15.0
26.65,0.0,0.0,0.0,0.0,0.0,0.0,0.0,15.0
26.65,0.0,0.0,0.0,0.0,0.0,0.0,0.0,15.0
26.61,0.0,0.0,0.0,0.0,0.0,0.0,0.0,15.0
26.61,0.0,0.0,0.0,0.0,0.0,0.0,0.0,15.0
26.61,0.0,0.0,0.0,0.0,0.0,0.0,0.0,15.0
26.59,0.0,0.0,0.0,0.0,0.0,0.0,0.0,15.0
26.65,0.0,0.0,0.0,0.0,0.0,0.0,0.0,15.0
26.77,0.0,0.0,0.0,0.0,0.0,0.0,0.0,15.0
26.83,0.0,0.0,0.0,0.0,0.0,0.0,0.0,15.0
26.91,0.0,0.0,0.0,0.0,0.0,0.0,0.0,15.0
27.31,0.0,0.0,0.0,0.0,0.0,0.0,0.0,15.0
28.43,0.0,0.0,0.0,0.0,0.0,0.0,0.0,15.0
31.41,0.0,0.0,0.0,0.0,0.0,0.0,0.0,15.0
37.77,0.0,0.0,0.0,0.0,0.0,0.0,0.0,15.0
37.99,0.0,0.0,0.0,0.0,0.0,0.0,0.0,15.0
38.53,0.0,0.0,0.0,0.0,0.0,0.0,0.0,15.0
38.69,0.0,0.0,0.0,0.0,0.0,0.0,0.0,15.0
38.55,0.0,0.0,0.0,0.0,0.0,0.0,0.0,15.0
38.63,0.0,0.0,0.0,0.0,0.0,0.0,0.0,20.0
38.87,0.0,0.0,0.0,0.0,0.0,0.0,0.0,30.0
39.03,0.0,0.0,0.0,0.0,0.0,0.0,0.0,40.0
39.09,0.0,0.0,0.0,0.0,0.0,0.0,0.0,50.0
39.15,0.0,0.0,0.0,0.0,0.0,0.0,0.0,60.0
39.39,0.0,147.0,0.0,0.0,0.0,0.0,658.0,68.0
39.39,0.0,605.0,0.0,0.0,78.0,0.0,1370.0,78.0
39.33,0.0,645.0,0.0,0.0,0.0,0.0,1443.0,88.0
39.31,0.0,674.0,0.0,0.0,71.0,0.0,1483.0,97.0
39.27,0.0,682.0,0.0,48.0,74.0,0.0,1507.0,100.0
39.29,0.0,698.0,0.0,0.0,74.0,0.0,1518.0,100.0
39.29,0.0,681.0,0.0,0.0,0.0,0.0,1534.0,100.0
39.29,0.0,694.0,0.0,0.0,77.0,0.0,1533.0,100.0
39.29,0.0,688.0,0.0,0.0,83.0,0.0,1543.0,100.0
39.29,0.0,679.0,0.0,0.0,80.0,0.0,1543.0,100.0
39.31,0.0,554.0,0.0,0.0,0.0,0.0,1331.0,100.0
39.33,0.0,0.0,0.0,0.0,0.0,0.0,335.0,100.0
39.39,0.0,0.0,0.0,0.0,0.0,0.0,106.0,100.0
39.39,0.0,0.0,0.0,0.0,0.0,0.0,19.0,100.0
39.57,0.0,0.0,0.0,0.0,0.0,0.0,4.0,100.0
39.65,0.0,0.0,0.0,0.0,0.0,0.0,0.0,100.0
39.59,0.0,0.0,0.0,0.0,0.0,0.0,0.0,100.0
39.63,0.0,0.0,0.0,0.0,0.0,0.0,0.0,100.0
39.57,0.0,0.0,0.0,0.0,0.0,0.0,0.0,100.0
39.57,0.0,0.0,0.0,0.0,0.0,0.0,0.0,100.0
39.49,0.0,0.0,0.0,0.0,0.0,0.0,30.0,100.0
38.87,0.0,0.0,0.0,0.0,0.0,0.0,34.0,100.0
38.51,0.0,0.0,0.0,0.0,0.0,0.0,166.0,100.0
33.35,0.0,0.0,0.0,0.0,0.0,0.0,0.0,100.0
27.11,0.0,0.0,0.0,0.0,0.0,144.0,0.0,100.0
26.93,0.0,0.0,0.0,0.0,0.0,0.0,0.0,100.0
26.77,0.0,0.0,0.0,0.0,0.0,0.0,0.0,100.0
26.67,0.0,0.0,0.0,0.0,0.0,0.0,0.0,100.0
26.73,0.0,0.0,0.0,0.0,0.0,0.0,0.0,100.0
26.71,0.0,0.0,0.0,0.0,0.0,0.0,0.0,100.0
26.67,0.0,0.0,0.0,0.0,0.0,0.0,0.0,100.0
26.55,0.0,0.0,0.0,0.0,0.0,0.0,0.0,100.0
26.43,0.0,0.0,0.0,0.0,0.0,0.0,0.0,100.0
26.47,0.0,0.0,0.0,0.0,0.0,0.0,0.0,100.0
26.47,0.0,0.0,0.0,0.0,0.0,0.0,0.0,100.0
26.43,0.0,0.0,0.0,0.0,0.0,0.0,0.0,100.0
26.37,0.0,0.0,0.0,0.0,0.0,0.0,0.0,100.0
26.35,0.0,0.0,0.0,0.0,0.0,0.0,0.0,100.0
26.35,0.0,0.0,0.0,0.0,0.0,0.0,0.0,100.0
26.29,0.0,0.0,0.0,0.0,0.0,0.0,0.0,100.0
26.27,0.0,0.0,0.0,0.0,0.0,0.0,0.0,100.0
26.23,0.0,0.0,0.0,0.0,0.0,0.0,0.0,100.0
26.27,0.0,0.0,0.0,0.0,0.0,0.0,0.0,100.0
26.21,0.0,0.0,0.0,0.0,0.0,0.0,0.0,100.0
26.21,0.0,0.0,0.0,0.0,0.0,0.0,0.0,100.0
26.29,0.0,0.0,0.0,0.0,0.0,0.0,0.0,100.0
26.17,0.0,0.0,0.0,0.0,0.0,0.0,0.0,100.0
26.17,0.0,0.0,0.0,0.0,0.0,0.0,0.0,100.0
26.31,0.0,0.0,0.0,0.0,0.0,0.0,0.0,100.0
26.29,0.0,0.0,0.0,0.0,0.0,0.0,0.0,100.0
26.29,0.0,0.0,0.0,0.0,0.0,0.0,0.0,100.0
26.31,0.0,0.0,0.0,0.0,0.0,0.0,0.0,100.0
26.29,0.0,0.0,0.0,0.0,0.0,0.0,0.0,100.0
26.23,0.0,0.0,0.0,0.0,0.0,0.0,0.0,100.0
26.27,0.0,0.0,0.0,0.0,0.0,0.0,0.0,100.0
26.21,0.0,0.0,0.0,0.0,128.0,0.0,0.0,100.0
26.17,0.0,0.0,0.0,0.0,0.0,0.0,0.0,100.0
26.23,0.0,0.0,0.0,0.0,0.0,0.0,0.0,100.0
26.17,0.0,0.0,0.0,0.0,0.0,0.0,0.0,100.0
26.11,0.0,0.0,0.0,0.0,0.0,0.0,0.0,100.0
26.17,0.0,0.0,0.0,0.0,0.0,0.0,0.0,100.0
26.11,0.0,0.0,0.0,0.0,0.0,0.0,0.0,100.0
26.15,0.0,0.0,0.0,0.0,0.0,0.0,0.0,100.0
26.23,0.0,0.0,0.0,0.0,0.0,0.0,0.0,100.0
26.17,0.0,0.0,0.0,0.0,0.0,0.0,0.0,100.0
26.11,0.0,0.0,0.0,0.0,0.0,0.0,0.0,100.0
26.15,0.0,0.0,0.0,0.0,0.0,0.0,0.0,100.0
26.11,0.0,0.0,0.0,0.0,0.0,0.0,0.0,100.0
26.21,0.0,0.0,0.0,0.0,0.0,0.0,0.0,100.0
26.15,0.0,0.0,0.0,0.0,0.0,0.0,0.0,100.0
26.11,0.0,0.0,0.0,0.0,0.0,0.0,0.0,100.0
26.15,0.0,0.0,0.0,0.0,0.0,0.0,0.0,100.0
26.11,0.0,0.0,0.0,0.0,0.0,0.0,0.0,100.0
26.05,0.0,0.0,0.0,0.0,0.0,0.0,0.0,100.0
26.09,0.0,0.0,0.0,0.0,0.0,0.0,0.0,100.0
26.11,0.0,0.0,0.0,0.0,0.0,0.0,0.0,100.0
26.09,0.0,0.0,0.0,0.0,0.0,0.0,0.0,100.0
26.15,0.0,0.0,0.0,0.0,0.0,0.0,0.0,100.0
26.11,128.0,0.0,0.0,0.0,0.0,0.0,0.0,100.0
26.15,0.0,0.0,0.0,0.0,0.0,0.0,0.0,100.0
26.15,0.0,0.0,0.0,0.0,0.0,0.0,0.0,100.0
26.11,0.0,0.0,0.0,0.0,0.0,0.0,2.0,100.0
26.11,0.0,0.0,0.0,0.0,0.0,0.0,0.0,100.0
26.17,0.0,0.0,0.0,0.0,0.0,0.0,0.0,100.0
26.15,0.0,0.0,0.0,0.0,0.0,0.0,0.0,100.0
26.09,0.0,0.0,0.0,0.0,0.0,0.0,0.0,100.0
26.11,0.0,0.0,0.0,0.0,0.0,0.0,0.0,100.0
26.05,0.0,0.0,0.0,0.0,0.0,0.0,0.0,100.0
26.11,0.0,0.0,0.0,0.0,0.0,0.0,0.0,100.0
26.03,0.0,0.0,0.0,0.0,0.0,0.0,0.0,100.0
26.05,0.0,0.0,0.0,0.0,0.0,0.0,0.0,100.0
26.05,0.0,0.0,0.0,0.0,0.0,0.0,0.0,15.0
26.03,0.0,0.0,0.0,0.0,0.0,0.0,0.0,15.0
25.97,0.0,0.0,0.0,0.0,0.0,0.0,0.0,15.0
25.99,0.0,0.0,0.0,0.0,0.0,0.0,0.0,15.0
26.05,0.0,0.0,0.0,0.0,0.0,0.0,0.0,15.0
26.09,0.0,0.0,0.0,0.0,0.0,0.0,0.0,15.0
26.15,0.0,0.0,0.0,0.0,0.0,0.0,0.0,15.0
26.17,0.0,0.0,0.0,0.0,0.0,0.0,0.0,15.0
26.15,0.0,0.0,0.0,0.0,0.0,0.0,0.0,15.0
26.23,0.0,0.0,0.0,0.0,0.0,0.0,0.0,15.0
26.11,0.0,0.0,0.0,0.0,0.0,0.0,0.0,15.0
26.17,0.0,0.0,0.0,0.0,0.0,0.0,0.0,15.0
26.21,0.0,0.0,0.0,0.0,52.0,0.0,0.0,15.0
25.99,0.0,0.0,0.0,0.0,0.0,0.0,0.0,15.0
26.05,0.0,0.0,0.0,0.0,0.0,0.0,0.0,15.0
25.99,0.0,0.0,0.0,0.0,0.0,0.0,0.0,15.0
25.97,0.0,0.0,0.0,0.0,0.0,0.0,0.0,15.0
25.99,0.0,0.0,0.0,0.0,0.0,0.0,0.0,15.0
26.05,0.0,0.0,0.0,0.0,0.0,0.0,0.0,15.0
26.03,0.0,0.0,0.0,0.0,0.0,0.0,0.0,15.0
26.15,0.0,0.0,0.0,0.0,0.0,0.0,0.0,15.0
26.11,0.0,0.0,0.0,0.0,0.0,0.0,0.0,15.0
26.11,0.0,0.0,0.0,0.0,0.0,0.0,0.0,15.0
26.11,0.0,0.0,0.0,0.0,0.0,0.0,0.0,15.0
26.05,0.0,0.0,0.0,0.0,0.0,0.0,0.0,15.0
26.09,0.0,0.0,0.0,0.0,0.0,0.0,0.0,15.0
26.15,0.0,0.0,0.0,0.0,0.0,0.0,0.0,15.0
26.11,0.0,0.0,0.0,0.0,0.0,0.0,0.0,15.0
26.17,0.0,0.0,0.0,0.0,0.0,0.0,0.0,15.0
26.09,0.0,0.0,0.0,0.0,0.0,0.0,0.0,15.0
26.15,0.0,0.0,0.0,0.0,0.0,0.0,0.0,15.0
26.09,0.0,0.0,0.0,0.0,0.0,0.0,0.0,15.0
26.15,0.0,0.0,0.0,0.0,0.0,0.0,0.0,15.0
26.15,0.0,0.0,0.0,0.0,0.0,0.0,0.0,15.0
26.15,0.0,0.0,0.0,0.0,0.0,0.0,0.0,15.0
26.15,0.0,0.0,0.0,0.0,0.0,0.0,0.0,15.0
26.11,0.0,0.0,0.0,0.0,0.0,0.0,0.0,15.0
26.11,0.0,0.0,0.0,0.0,0.0,0.0,0.0,15.0
26.21,0.0,0.0,0.0,0.0,0.0,0.0,0.0,15.0
26.11,0.0,0.0,0.0,0.0,0.0,0.0,0.0,15.0
26.11,0.0,0.0,0.0,0.0,0.0,0.0,0.0,15.0
26.11,0.0,0.0,0.0,0.0,0.0,0.0,0.0,15.0
26.09,0.0,0.0,0.0,0.0,0.0,0.0,0.0,15.0
26.11,0.0,0.0,0.0,0.0,0.0,0.0,0.0,15.0
26.11,0.0,0.0,0.0,0.0,0.0,0.0,0.0,15.0
26.11,0.0,0.0,0.0,0.0,0.0,0.0,0.0,15.0
25.99,0.0,0.0,0.0,0.0,0.0,0.0,0.0,15.0
26.05,0.0,0.0,0.0,0.0,0.0,0.0,0.0,15.0
25.99,0.0,0.0,0.0,0.0,0.0,0.0,0.0,15.0
25.93,0.0,0.0,0.0,0.0,0.0,0.0,0.0,15.0
25.97,0.0,0.0,0.0,0.0,0.0,0.0,0.0,15.0
25.99,0.0,0.0,0.0,0.0,0.0,0.0,0.0,15.0
26.79,0.0,0.0,0.0,0.0,0.0,0.0,0.0,15.0
26.91,0.0,0.0,0.0,0.0,0.0,0.0,0.0,15.0
27.11,0.0,0.0,0.0,0.0,0.0,0.0,0.0,15.0
26.87,0.0,0.0,0.0,0.0,0.0,0.0,0.0,15.0
26.97,0.0,0.0,0.0,0.0,0.0,0.0,0.0,15.0
26.97,0.0,0.0,0.0,0.0,0.0,0.0,0.0,15.0
26.93,0.0,0.0,0.0,0.0,0.0,0.0,0.0,15.0
27.09,0.0,80.0,0.0,0.0,0.0,0.0,0.0,15.0
27.09,0.0,0.0,0.0,0.0,0.0,0.0,0.0,18.0
27.11,0.0,0.0,0.0,0.0,0.0,0.0,0.0,28.0
26.93,0.0,0.0,0.0,0.0,0.0,0.0,0.0,38.0
26.93,0.0,0.0,0.0,0.0,0.0,0.0,1.0,48.0
27.03,0.0,0.0,0.0,0.0,0.0,0.0,0.0,58.0
27.09,0.0,0.0,0.0,0.0,0.0,0.0,0.0,67.0
27.09,0.0,0.0,0.0,0.0,0.0,0.0,404.0,77.0
27.05,0.0,0.0,0.0,0.0,0.0,0.0,2028.0,88.0
27.09,0.0,0.0,126.0,0.0,0.0,0.0,2080.0,99.0
27.03,0.0,0.0,128.0,0.0,0.0,0.0,2126.0,100.0
27.05,0.0,0.0,245.0,0.0,0.0,0.0,2113.0,100.0
27.09,0.0,0.0,144.0,0.0,0.0,0.0,1769.0,100.0
27.09,0.0,0.0,149.0,0.0,0.0,0.0,1809.0,100.0
27.05,0.0,0.0,155.0,0.0,0.0,0.0,1807.0,100.0
27.09,0.0,0.0,180.0,0.0,0.0,0.0,1854.0,100.0
27.05,0.0,0.0,184.0,0.0,0.0,0.0,1853.0,100.0
27.09,0.0,0.0,181.0,0.0,0.0,0.0,1855.0,100.0
27.05,0.0,0.0,188.0,0.0,0.0,0.0,1852.0,100.0
27.05,0.0,0.0,192.0,0.0,0.0,0.0,1854.0,100.0
27.03,0.0,0.0,201.0,0.0,0.0,0.0,1857.0,100.0
26.99,0.0,0.0,206.0,0.0,0.0,0.0,1861.0,100.0
27.05,0.0,0.0,226.0,0.0,0.0,0.0,1864.0,100.0
26.99,0.0,0.0,240.0,0.0,0.0,0.0,1869.0,100.0
27.03,0.0,0.0,256.0,0.0,0.0,0.0,1852.0,100.0
26.99,0.0,0.0,263.0,0.0,0.0,0.0,1866.0,100.0
26.99,0.0,0.0,281.0,0.0,0.0,0.0,1863.0,100.0
26.99,0.0,0.0,274.0,0.0,0.0,0.0,1881.0,100.0
27.11,0.0,0.0,306.0,0.0,0.0,0.0,1890.0,100.0
27.09,0.0,0.0,312.0,0.0,0.0,0.0,1891.0,100.0
27.15,0.0,0.0,304.0,0.0,0.0,0.0,1891.0,100.0
27.11,0.0,0.0,433.0,0.0,0.0,0.0,1886.0,100.0
27.09,0.0,0.0,270.0,0.0,0.0,0.0,1895.0,100.0
27.09,0.0,0.0,320.0,0.0,0.0,0.0,1904.0,100.0
27.05,0.0,0.0,289.0,0.0,0.0,0.0,1903.0,100.0
27.03,0.0,0.0,321.0,0.0,0.0,0.0,1903.0,100.0
27.03,0.0,2.0,336.0,0.0,0.0,0.0,1895.0,100.0
26.97,0.0,0.0,332.0,0.0,0.0,0.0,1902.0,100.0
27.05,0.0,2.0,324.0,0.0,0.0,0.0,1897.0,100.0
27.05,0.0,7.0,320.0,0.0,0.0,0.0,1898.0,100.0
27.05,0.0,0.0,300.0,0.0,0.0,0.0,1888.0,100.0
26.99,0.0,2.0,270.0,0.0,0.0,0.0,1895.0,100.0
26.91,0.0,8.0,283.0,0.0,0.0,0.0,1882.0,100.0
26.91,0.0,0.0,236.0,0.0,0.0,0.0,1893.0,100.0
26.67,0.0,3.0,258.0,0.0,0.0,0.0,1887.0,100.0
26.73,0.0,7.0,254.0,0.0,0.0,0.0,1890.0,100.0
26.73,0.0,0.0,243.0,0.0,0.0,0.0,1895.0,100.0
26.77,0.0,0.0,253.0,0.0,0.0,0.0,1892.0,100.0
26.67,0.0,4.0,246.0,0.0,0.0,0.0,1894.0,100.0
26.93,0.0,4.0,245.0,0.0,0.0,0.0,1898.0,100.0
27.67,0.0,5.0,256.0,0.0,0.0,0.0,1895.0,100.0
27.73,0.0,1.0,258.0,0.0,0.0,0.0,1894.0,100.0
27.75,0.0,1.0,265.0,0.0,0.0,0.0,1902.0,100.0
28.59,0.0,14.0,256.0,0.0,0.0,0.0,1889.0,100.0
26.73,0.0,6.0,270.0,0.0,0.0,0.0,1885.0,100.0
26.79,0.0,9.0,0.0,0.0,0.0,0.0,1889.0,100.0
26.79,0.0,2.0,211.0,0.0,0.0,0.0,1899.0,100.0
26.73,0.0,9.0,258.0,0.0,0.0,0.0,1901.0,100.0
26.83,0.0,8.0,257.0,0.0,0.0,0.0,1903.0,100.0
26.77,0.0,0.0,255.0,0.0,0.0,0.0,1902.0,100.0
26.73,0.0,9.0,259.0,0.0,0.0,0.0,1887.0,100.0
26.77,0.0,0.0,263.0,0.0,0.0,0.0,1887.0,100.0
26.71,0.0,15.0,263.0,0.0,0.0,0.0,1888.0,100.0
26.71,0.0,10.0,270.0,0.0,0.0,0.0,1898.0,100.0
26.71,0.0,9.0,269.0,0.0,0.0,0.0,1886.0,100.0
26.65,0.0,0.0,268.0,0.0,0.0,0.0,1889.0,100.0
26.61,0.0,3.0,271.0,0.0,0.0,0.0,1891.0,100.0
26.53,0.0,14.0,267.0,0.0,0.0,0.0,1896.0,100.0
26.61,0.0,10.0,274.0,0.0,0.0,0.0,1887.0,100.0
26.59,0.0,8.0,267.0,0.0,0.0,0.0,1892.0,100.0
26.59,0.0,0.0,272.0,0.0,0.0,0.0,1895.0,100.0
26.55,0.0,11.0,279.0,0.0,0.0,0.0,1888.0,100.0
26.61,0.0,11.0,256.0,0.0,0.0,0.0,1887.0,100.0
26.55,0.0,43.0,265.0,0.0,0.0,0.0,1882.0,100.0
26.61,0.0,17.0,277.0,0.0,0.0,0.0,1890.0,100.0
26.61,0.0,11.0,274.0,0.0,0.0,0.0,1894.0,100.0
26.59,0.0,17.0,273.0,0.0,0.0,0.0,1891.0,100.0
26.59,0.0,14.0,278.0,0.0,0.0,0.0,1890.0,100.0
26.59,0.0,8.0,279.0,0.0,0.0,0.0,1884.0,100.0
26.61,0.0,16.0,272.0,0.0,0.0,0.0,1897.0,100.0
26.65,0.0,0.0,273.0,0.0,0.0,0.0,1892.0,100.0
26.53,0.0,0.0,272.0,0.0,0.0,0.0,1894.0,100.0
26.59,0.0,0.0,273.0,0.0,0.0,0.0,1893.0,100.0
26.53,0.0,22.0,283.0,0.0,0.0,0.0,1896.0,100.0
26.55,0.0,18.0,277.0,0.0,0.0,0.0,1891.0,100.0
26.49,0.0,16.0,278.0,0.0,0.0,0.0,1890.0,100.0
26.55,0.0,22.0,282.0,0.0,0.0,0.0,1889.0,100.0
26.59,0.0,17.0,273.0,0.0,0.0,0.0,1896.0,100.0
26.59,0.0,0.0,0.0,0.0,0.0,0.0,0.0,15.0
26.87,0.0,0.0,0.0,0.0,0.0,0.0,0.0,15.0
25.81,0.0,0.0,0.0,0.0,0.0,0.0,0.0,15.0
25.91,0.0,0.0,0.0,0.0,0.0,0.0,0.0,15.0
25.75,0.0,0.0,0.0,0.0,0.0,0.0,0.0,15.0
25.87,0.0,0.0,0.0,0.0,0.0,0.0,0.0,15.0
25.85,0.0,0.0,0.0,0.0,0.0,0.0,0.0,15.0
25.93,0.0,0.0,0.0,0.0,0.0,0.0,0.0,15.0
25.97,0.0,0.0,0.0,0.0,0.0,0.0,0.0,15.0
25.97,0.0,0.0,0.0,0.0,0.0,0.0,0.0,15.0
25.91,0.0,0.0,0.0,0.0,0.0,0.0,0.0,15.0
25.87,0.0,0.0,0.0,0.0,0.0,0.0,0.0,15.0
25.87,0.0,0.0,0.0,0.0,0.0,0.0,0.0,15.0
25.87,0.0,0.0,0.0,0.0,0.0,0.0,0.0,15.0
25.87,0.0,0.0,0.0,0.0,0.0,0.0,0.0,15.0
25.79,0.0,0.0,0.0,0.0,0.0,0.0,0.0,15.0
25.93,0.0,0.0,0.0,0.0,0.0,0.0,0.0,15.0
25.99,0.0,0.0,0.0,0.0,0.0,0.0,0.0,15.0
25.97,0.0,0.0,0.0,0.0,0.0,0.0,0.0,15.0
25.97,0.0,0.0,0.0,0.0,0.0,0.0,0.0,15.0
25.99,0.0,0.0,0.0,0.0,0.0,0.0,0.0,15.0
26.03,0.0,0.0,0.0,0.0,0.0,0.0,0.0,15.0
26.05,0.0,0.0,0.0,0.0,0.0,0.0,0.0,15.0
26.09,0.0,0.0,0.0,0.0,0.0,0.0,0.0,15.0
