tempMLX,FSR_A1,FSR_A2,FSR_A3,FSR_B1,FSR_B2,FSR_B3,FSR_C,porcAper
0.0,0.0,0.0,0.0,0.0,0.0,0.0,0.0,15.0
0.0,0.0,0.0,0.0,0.0,0.0,0.0,0.0,15.0
26.35,0.0,0.0,0.0,0.0,0.0,0.0,0.0,15.0
26.43,0.0,0.0,0.0,0.0,0.0,0.0,0.0,15.0
26.43,0.0,0.0,0.0,0.0,0.0,0.0,0.0,15.0
26.37,0.0,0.0,0.0,0.0,0.0,0.0,0.0,15.0
26.37,0.0,0.0,0.0,0.0,0.0,0.0,0.0,15.0
26.41,0.0,0.0,0.0,0.0,0.0,0.0,0.0,15.0
26.37,0.0,0.0,0.0,0.0,0.0,0.0,0.0,15.0
26.41,0.0,0.0,0.0,0.0,0.0,0.0,0.0,15.0
26.35,0.0,0.0,0.0,0.0,0.0,0.0,0.0,15.0
26.37,0.0,0.0,0.0,0.0,0.0,0.0,0.0,15.0
26.41,0.0,0.0,0.0,0.0,0.0,0.0,0.0,15.0
26.41,0.0,0.0,0.0,0.0,0.0,0.0,0.0,15.0
26.47,0.0,0.0,0.0,0.0,0.0,0.0,0.0,15.0
26.43,0.0,0.0,0.0,0.0,0.0,0.0,0.0,15.0
26.41,0.0,0.0,0.0,0.0,0.0,0.0,0.0,15.0
26.37,0.0,0.0,0.0,0.0,0.0,0.0,0.0,15.0
26.35,0.0,0.0,0.0,0.0,0.0,0.0,0.0,15.0
26.31,0.0,0.0,0.0,0.0,0.0,0.0,0.0,15.0
26.31,0.0,0.0,0.0,0.0,0.0,0.0,0.0,15.0
26.35,0.0,0.0,0.0,0.0,0.0,0.0,0.0,15.0
26.27,0.0,0.0,0.0,0.0,0.0,0.0,0.0,15.0
26.27,0.0,0.0,0.0,0.0,0.0,0.0,0.0,15.0
26.27,0.0,0.0,0.0,0.0,0.0,0.0,0.0,15.0
26.31,0.0,0.0,0.0,0.0,0.0,0.0,0.0,15.0
26.29,0.0,0.0,0.0,0.0,0.0,0.0,0.0,15.0
26.29,0.0,0.0,0.0,0.0,0.0,0.0,0.0,15.0
26.31,0.0,0.0,0.0,0.0,0.0,0.0,0.0,15.0
26.31,0.0,0.0,0.0,0.0,0.0,0.0,0.0,15.0
26.43,0.0,0.0,0.0,0.0,0.0,0.0,0.0,15.0
26.43,0.0,0.0,0.0,0.0,0.0,0.0,0.0,15.0
26.43,0.0,0.0,0.0,0.0,0.0,0.0,0.0,15.0
26.43,0.0,0.0,0.0,0.0,0.0,0.0,0.0,15.0
26.47,0.0,0.0,0.0,0.0,0.0,0.0,0.0,15.0
26.53,0.0,0.0,0.0,0.0,0.0,0.0,0.0,15.0
26.59,0.0,0.0,0.0,0.0,0.0,0.0,0.0,15.0
26.47,0.0,0.0,0.0,0.0,0.0,0.0,0.0,15.0
26.47,0.0,0.0,0.0,0.0,0.0,0.0,0.0,15.0
26.43,0.0,0.0,0.0,0.0,0.0,0.0,0.0,15.0
26.47,0.0,0.0,0.0,0.0,0.0,0.0,0.0,15.0
26.47,0.0,0.0,0.0,0.0,0.0,0.0,0.0,15.0
26.43,0.0,0.0,0.0,0.0,0.0,0.0,0.0,15.0
26.47,0.0,0.0,0.0,0.0,0.0,0.0,0.0,15.0
26.55,0.0,0.0,0.0,0.0,0.0,0.0,0.0,15.0
26.47,0.0,0.0,0.0,0.0,0.0,0.0,0.0,15.0
26.43,0.0,0.0,0.0,0.0,0.0,0.0,0.0,15.0
26.53,0.0,0.0,0.0,0.0,0.0,0.0,0.0,15.0
26.49,0.0,0.0,0.0,0.0,0.0,0.0,0.0,15.0
26.43,0.0,0.0,0.0,0.0,0.0,0.0,0.0,15.0
26.55,0.0,0.0,0.0,0.0,0.0,0.0,0.0,15.0
26.43,0.0,0.0,0.0,0.0,0.0,0.0,0.0,15.0
26.49,0.0,0.0,0.0,0.0,0.0,0.0,0.0,15.0
26.49,0.0,0.0,0.0,0.0,0.0,0.0,0.0,15.0
26.37,0.0,0.0,0.0,0.0,0.0,0.0,0.0,15.0
26.37,0.0,0.0,0.0,0.0,0.0,0.0,0.0,15.0
26.41,0.0,0.0,0.0,0.0,0.0,0.0,0.0,15.0
26.35,0.0,0.0,0.0,0.0,0.0,0.0,0.0,15.0
26.41,0.0,0.0,0.0,0.0,0.0,0.0,0.0,15.0
26.43,0.0,0.0,0.0,0.0,0.0,0.0,0.0,15.0
26.37,0.0,0.0,0.0,0.0,0.0,0.0,0.0,15.0
26.41,0.0,0.0,0.0,0.0,0.0,0.0,0.0,15.0
26.41,0.0,0.0,0.0,0.0,0.0,0.0,0.0,15.0
26.37,0.0,0.0,0.0,0.0,0.0,0.0,0.0,15.0
26.35,0.0,0.0,0.0,0.0,0.0,0.0,0.0,15.0
26.37,0.0,0.0,0.0,0.0,0.0,0.0,0.0,15.0
26.35,0.0,0.0,0.0,0.0,0.0,0.0,0.0,15.0
26.35,0.0,0.0,0.0,0.0,0.0,0.0,0.0,15.0
26.41,0.0,0.0,0.0,0.0,0.0,0.0,0.0,15.0
26.37,0.0,0.0,0.0,0.0,0.0,0.0,0.0,15.0
26.35,0.0,0.0,0.0,0.0,0.0,0.0,0.0,15.0
26.43,0.0,0.0,0.0,0.0,0.0,0.0,0.0,15.0
26.29,0.0,0.0,0.0,0.0,0.0,0.0,0.0,15.0
26.37,0.0,0.0,0.0,0.0,0.0,0.0,0.0,15.0
26.35,0.0,0.0,0.0,0.0,0.0,0.0,0.0,15.0
26.37,0.0,0.0,0.0,0.0,0.0,0.0,0.0,15.0
26.37,0.0,0.0,0.0,0.0,0.0,0.0,0.0,15.0
26.37,0.0,0.0,0.0,0.0,0.0,0.0,0.0,15.0
26.35,0.0,0.0,0.0,0.0,0.0,0.0,0.0,15.0
26.35,0.0,0.0,0.0,0.0,0.0,0.0,0.0,15.0
26.35,0.0,0.0,0.0,0.0,0.0,0.0,0.0,15.0
26.41,0.0,0.0,0.0,0.0,0.0,0.0,0.0,15.0
26.35,0.0,0.0,0.0,0.0,0.0,0.0,0.0,15.0
26.37,0.0,0.0,0.0,0.0,0.0,0.0,0.0,15.0
26.35,0.0,0.0,0.0,0.0,0.0,0.0,0.0,15.0
26.37,0.0,0.0,0.0,0.0,0.0,0.0,0.0,15.0
26.41,0.0,0.0,0.0,0.0,0.0,0.0,0.0,15.0
26.41,0.0,0.0,0.0,0.0,0.0,0.0,0.0,15.0
26.41,0.0,0.0,0.0,0.0,0.0,0.0,0.0,15.0
26.37,0.0,0.0,0.0,0.0,0.0,0.0,0.0,15.0
26.37,0.0,0.0,0.0,0.0,0.0,0.0,0.0,15.0
26.35,0.0,0.0,0.0,0.0,0.0,0.0,0.0,15.0
26.43,0.0,0.0,0.0,0.0,0.0,0.0,0.0,15.0
27.11,0.0,0.0,0.0,0.0,0.0,0.0,0.0,15.0
28.63,0.0,0.0,0.0,0.0,0.0,0.0,0.0,17.0
29.89,0.0,0.0,0.0,0.0,0.0,0.0,0.0,17.0
29.99,0.0,0.0,0.0,0.0,0.0,0.0,0.0,17.0
30.67,0.0,0.0,0.0,0.0,0.0,0.0,0.0,17.0
31.53,0.0,0.0,0.0,0.0,0.0,0.0,0.0,17.0
31.49,0.0,0.0,0.0,0.0,0.0,0.0,0.0,17.0
32.21,0.0,0.0,0.0,0.0,0.0,0.0,0.0,17.0
36.07,0.0,0.0,0.0,0.0,0.0,0.0,0.0,17.0
37.71,0.0,0.0,0.0,0.0,0.0,0.0,0.0,17.0
40.01,0.0,0.0,0.0,0.0,0.0,0.0,0.0,17.0
41.03,0.0,0.0,0.0,0.0,0.0,0.0,0.0,17.0
41.09,0.0,0.0,0.0,0.0,0.0,0.0,0.0,17.0
41.11,0.0,0.0,0.0,0.0,0.0,0.0,0.0,17.0
41.77,0.0,0.0,0.0,0.0,0.0,0.0,0.0,17.0
42.09,0.0,0.0,0.0,0.0,0.0,0.0,0.0,17.0
42.01,0.0,0.0,0.0,0.0,0.0,0.0,0.0,17.0
41.03,0.0,0.0,0.0,0.0,0.0,0.0,0.0,17.0
40.67,0.0,0.0,0.0,0.0,0.0,0.0,0.0,17.0
40.51,0.0,0.0,0.0,0.0,0.0,0.0,0.0,17.0
39.15,0.0,0.0,0.0,0.0,0.0,0.0,0.0,26.0
38.53,0.0,0.0,0.0,0.0,0.0,0.0,0.0,36.0
38.17,0.0,0.0,0.0,0.0,0.0,0.0,0.0,46.0
37.67,0.0,0.0,0.0,0.0,0.0,0.0,0.0,55.0
37.91,0.0,0.0,0.0,0.0,0.0,0.0,0.0,65.0
38.95,0.0,0.0,0.0,574.0,0.0,0.0,705.0,75.0
39.03,0.0,0.0,0.0,658.0,0.0,0.0,837.0,85.0
39.05,0.0,0.0,0.0,729.0,0.0,0.0,866.0,96.0
39.05,0.0,0.0,0.0,768.0,0.0,0.0,929.0,100.0
39.03,0.0,0.0,0.0,795.0,0.0,0.0,924.0,100.0
39.03,0.0,0.0,0.0,793.0,0.0,0.0,936.0,100.0
39.01,0.0,0.0,0.0,812.0,0.0,0.0,949.0,100.0
39.05,0.0,0.0,0.0,815.0,0.0,0.0,957.0,100.0
39.01,0.0,0.0,0.0,753.0,0.0,0.0,879.0,100.0
39.13,0.0,0.0,0.0,750.0,0.0,0.0,949.0,100.0
39.09,0.0,0.0,0.0,808.0,0.0,0.0,963.0,100.0
39.13,0.0,0.0,0.0,811.0,0.0,0.0,970.0,100.0
39.21,0.0,0.0,0.0,829.0,0.0,0.0,987.0,100.0
39.21,0.0,0.0,0.0,836.0,0.0,0.0,983.0,100.0
39.23,0.0,0.0,0.0,845.0,0.0,0.0,980.0,100.0
39.27,0.0,0.0,0.0,853.0,0.0,0.0,986.0,100.0
39.21,0.0,0.0,0.0,845.0,0.0,0.0,990.0,100.0
39.27,0.0,0.0,0.0,888.0,0.0,0.0,986.0,100.0
39.27,0.0,0.0,0.0,889.0,0.0,0.0,982.0,100.0
39.29,0.0,0.0,0.0,816.0,0.0,0.0,995.0,100.0
39.37,0.0,0.0,0.0,910.0,0.0,0.0,1001.0,100.0
39.31,0.0,0.0,0.0,913.0,0.0,0.0,1005.0,100.0
39.37,0.0,0.0,0.0,907.0,0.0,0.0,1060.0,100.0
39.37,0.0,0.0,0.0,927.0,0.0,0.0,1065.0,100.0
39.39,0.0,0.0,0.0,929.0,0.0,0.0,1053.0,100.0
39.41,0.0,0.0,0.0,949.0,0.0,0.0,1040.0,100.0
39.39,0.0,0.0,0.0,955.0,0.0,0.0,937.0,100.0
39.41,0.0,0.0,0.0,992.0,0.0,0.0,1001.0,100.0
39.45,0.0,0.0,0.0,971.0,0.0,0.0,1009.0,100.0
39.41,0.0,0.0,0.0,985.0,0.0,0.0,1062.0,100.0
39.47,0.0,0.0,0.0,987.0,0.0,0.0,1078.0,100.0
39.45,0.0,0.0,0.0,997.0,0.0,0.0,1063.0,100.0
39.39,0.0,0.0,0.0,1023.0,0.0,0.0,1011.0,100.0
39.39,0.0,0.0,0.0,1034.0,0.0,0.0,1008.0,100.0
39.47,0.0,0.0,0.0,1036.0,0.0,0.0,1010.0,100.0
39.41,0.0,0.0,0.0,1040.0,0.0,0.0,1005.0,100.0
39.45,0.0,0.0,0.0,1054.0,0.0,0.0,1014.0,100.0
39.55,0.0,0.0,0.0,1047.0,0.0,0.0,1045.0,100.0
39.55,0.0,0.0,0.0,1050.0,0.0,0.0,1057.0,100.0
39.59,0.0,0.0,0.0,1061.0,0.0,0.0,1084.0,100.0
39.59,0.0,0.0,0.0,1085.0,0.0,0.0,1103.0,100.0
39.65,0.0,0.0,0.0,1104.0,0.0,0.0,1147.0,100.0
39.63,0.0,0.0,0.0,1105.0,0.0,0.0,1157.0,100.0
39.67,0.0,0.0,0.0,1109.0,0.0,0.0,1155.0,100.0
39.71,0.0,0.0,0.0,1118.0,0.0,0.0,1147.0,100.0
39.73,0.0,0.0,0.0,1122.0,0.0,0.0,1150.0,100.0
39.67,0.0,0.0,0.0,1124.0,0.0,0.0,1157.0,100.0
39.75,0.0,0.0,0.0,1134.0,0.0,0.0,1168.0,100.0
39.73,0.0,0.0,0.0,1133.0,0.0,0.0,1157.0,100.0
39.81,0.0,0.0,0.0,1146.0,0.0,0.0,1162.0,100.0
39.81,0.0,0.0,0.0,1153.0,0.0,0.0,1162.0,100.0
39.73,0.0,0.0,0.0,1154.0,0.0,0.0,1158.0,100.0
39.81,0.0,0.0,0.0,1155.0,0.0,0.0,1154.0,100.0
39.81,0.0,0.0,0.0,1166.0,0.0,0.0,1158.0,100.0
39.77,0.0,0.0,0.0,1168.0,0.0,0.0,1161.0,100.0
39.85,0.0,0.0,0.0,1181.0,0.0,0.0,1170.0,100.0
39.83,0.0,0.0,0.0,1189.0,0.0,0.0,1166.0,100.0
39.85,0.0,0.0,0.0,1196.0,0.0,0.0,1171.0,100.0
39.91,0.0,0.0,0.0,1200.0,0.0,0.0,1159.0,100.0
39.99,0.0,0.0,0.0,1206.0,0.0,0.0,1159.0,100.0
40.01,0.0,0.0,0.0,1223.0,0.0,0.0,1147.0,100.0
39.99,0.0,0.0,0.0,1217.0,0.0,0.0,1146.0,100.0
39.93,0.0,0.0,0.0,1223.0,0.0,0.0,1159.0,100.0
39.93,0.0,0.0,0.0,1235.0,0.0,0.0,1157.0,100.0
39.93,0.0,0.0,0.0,1236.0,0.0,0.0,1156.0,100.0
39.93,0.0,0.0,0.0,1239.0,0.0,0.0,1158.0,100.0
39.95,0.0,0.0,0.0,1261.0,0.0,0.0,1142.0,100.0
39.93,0.0,0.0,0.0,1261.0,0.0,0.0,1163.0,100.0
39.93,0.0,0.0,0.0,1268.0,0.0,0.0,1167.0,100.0
39.99,0.0,0.0,0.0,1265.0,0.0,0.0,1159.0,100.0
39.99,0.0,0.0,0.0,1271.0,0.0,0.0,1166.0,100.0
40.03,0.0,0.0,0.0,1279.0,0.0,0.0,1156.0,100.0
40.03,0.0,0.0,0.0,1290.0,0.0,0.0,1158.0,100.0
40.03,0.0,0.0,0.0,1290.0,0.0,0.0,1155.0,100.0
40.03,0.0,0.0,0.0,1296.0,0.0,0.0,1156.0,100.0
39.93,0.0,0.0,0.0,1301.0,0.0,0.0,1157.0,100.0
40.01,0.0,0.0,0.0,1300.0,0.0,0.0,1157.0,100.0
40.01,0.0,0.0,0.0,1306.0,0.0,0.0,1150.0,100.0
40.07,0.0,0.0,0.0,1300.0,0.0,0.0,1152.0,100.0
39.99,0.0,0.0,0.0,1313.0,0.0,0.0,1155.0,100.0
40.07,0.0,0.0,0.0,1323.0,0.0,0.0,1151.0,100.0
40.07,0.0,0.0,0.0,1327.0,0.0,0.0,1150.0,100.0
40.13,160.0,0.0,0.0,1318.0,0.0,0.0,1157.0,100.0
40.19,0.0,0.0,0.0,1330.0,0.0,0.0,1160.0,100.0
40.17,0.0,0.0,0.0,1328.0,0.0,0.0,1151.0,100.0
40.17,0.0,0.0,0.0,1334.0,0.0,0.0,1154.0,100.0
40.13,0.0,0.0,0.0,1330.0,0.0,0.0,1154.0,100.0
40.13,0.0,0.0,0.0,1341.0,0.0,0.0,1148.0,100.0
40.19,0.0,0.0,0.0,1342.0,0.0,0.0,1152.0,100.0
40.21,0.0,0.0,0.0,1344.0,0.0,0.0,1148.0,100.0
40.13,0.0,0.0,0.0,1264.0,0.0,0.0,1143.0,100.0
40.17,0.0,0.0,0.0,1340.0,0.0,0.0,1142.0,100.0
40.13,0.0,0.0,0.0,1362.0,0.0,0.0,1143.0,100.0
40.17,0.0,0.0,0.0,1364.0,0.0,0.0,1154.0,100.0
40.17,0.0,0.0,0.0,1374.0,0.0,0.0,1148.0,100.0
40.11,0.0,0.0,0.0,1365.0,0.0,0.0,1146.0,100.0
40.11,0.0,0.0,0.0,1375.0,0.0,0.0,1150.0,100.0
40.19,0.0,0.0,0.0,1385.0,0.0,0.0,1142.0,100.0
40.21,0.0,0.0,0.0,1387.0,0.0,0.0,1145.0,100.0
40.17,0.0,0.0,0.0,1382.0,0.0,0.0,1147.0,100.0
40.21,0.0,0.0,0.0,1491.0,0.0,0.0,1151.0,100.0
40.21,0.0,0.0,0.0,1392.0,0.0,0.0,1145.0,100.0
40.17,0.0,0.0,0.0,1398.0,0.0,0.0,1150.0,100.0
40.21,0.0,0.0,0.0,1406.0,0.0,0.0,1146.0,100.0
40.21,0.0,0.0,0.0,1418.0,0.0,0.0,1141.0,100.0
40.25,0.0,0.0,0.0,1415.0,0.0,0.0,1146.0,100.0
40.25,0.0,0.0,0.0,1416.0,0.0,0.0,1148.0,100.0
40.27,0.0,0.0,0.0,1424.0,0.0,0.0,1146.0,100.0
40.35,0.0,0.0,0.0,1424.0,0.0,0.0,1140.0,100.0
40.27,0.0,0.0,0.0,1425.0,0.0,0.0,1141.0,100.0
40.27,0.0,0.0,0.0,1440.0,0.0,0.0,1143.0,100.0
40.31,0.0,0.0,0.0,1434.0,0.0,0.0,1138.0,100.0
40.25,0.0,0.0,0.0,1443.0,0.0,0.0,1144.0,100.0
40.25,0.0,0.0,0.0,1433.0,0.0,0.0,1143.0,100.0
40.19,0.0,0.0,0.0,1445.0,0.0,0.0,1139.0,100.0
40.25,0.0,0.0,0.0,1453.0,0.0,0.0,1139.0,100.0
40.21,0.0,0.0,0.0,1455.0,0.0,0.0,1140.0,100.0
40.21,0.0,0.0,0.0,1451.0,0.0,0.0,1137.0,100.0
40.21,0.0,0.0,0.0,1458.0,0.0,0.0,1143.0,100.0
40.21,0.0,0.0,0.0,1456.0,0.0,0.0,1149.0,100.0
40.19,0.0,0.0,0.0,1458.0,0.0,0.0,1143.0,100.0
40.21,0.0,0.0,0.0,1456.0,0.0,0.0,1145.0,100.0
40.57,0.0,0.0,0.0,0.0,0.0,0.0,0.0,15.0
44.33,0.0,0.0,0.0,0.0,0.0,0.0,0.0,15.0
27.43,0.0,0.0,0.0,0.0,0.0,0.0,0.0,15.0
27.35,0.0,0.0,0.0,0.0,0.0,0.0,0.0,15.0
27.23,0.0,0.0,0.0,0.0,0.0,0.0,0.0,15.0
27.11,0.0,0.0,0.0,0.0,0.0,0.0,0.0,15.0
27.15,0.0,0.0,0.0,0.0,0.0,0.0,0.0,15.0
27.05,0.0,0.0,0.0,0.0,0.0,0.0,0.0,15.0
27.03,0.0,0.0,0.0,0.0,0.0,0.0,0.0,15.0
27.03,0.0,0.0,0.0,0.0,0.0,0.0,0.0,15.0
27.05,0.0,0.0,0.0,0.0,0.0,0.0,0.0,15.0
27.15,0.0,0.0,0.0,0.0,0.0,0.0,0.0,15.0
27.15,0.0,0.0,0.0,0.0,0.0,0.0,0.0,15.0
27.09,0.0,0.0,0.0,0.0,0.0,0.0,0.0,15.0
27.15,0.0,0.0,0.0,0.0,0.0,0.0,0.0,15.0
27.11,0.0,0.0,0.0,0.0,0.0,0.0,0.0,15.0
27.15,0.0,0.0,0.0,0.0,0.0,0.0,0.0,15.0
27.11,0.0,0.0,0.0,0.0,0.0,0.0,0.0,15.0
27.15,0.0,0.0,0.0,0.0,0.0,0.0,0.0,15.0
27.15,0.0,0.0,0.0,0.0,0.0,0.0,0.0,15.0
27.11,0.0,0.0,0.0,0.0,0.0,0.0,0.0,15.0
27.03,0.0,0.0,0.0,0.0,0.0,0.0,0.0,15.0
27.05,0.0,0.0,0.0,0.0,0.0,0.0,0.0,15.0
27.15,0.0,0.0,0.0,0.0,0.0,0.0,0.0,15.0
27.15,0.0,0.0,0.0,0.0,0.0,0.0,0.0,15.0
27.15,0.0,0.0,0.0,0.0,0.0,0.0,0.0,15.0
27.21,0.0,0.0,0.0,0.0,0.0,0.0,0.0,15.0
27.29,0.0,0.0,0.0,0.0,0.0,0.0,0.0,15.0
27.35,0.0,0.0,0.0,0.0,0.0,0.0,0.0,15.0
27.41,0.0,0.0,0.0,0.0,0.0,0.0,0.0,15.0
27.47,0.0,0.0,0.0,0.0,0.0,0.0,0.0,15.0
27.29,0.0,0.0,0.0,0.0,0.0,0.0,0.0,15.0
27.31,0.0,0.0,0.0,0.0,0.0,0.0,0.0,15.0
27.23,0.0,0.0,0.0,0.0,0.0,0.0,0.0,15.0
27.25,0.0,0.0,0.0,0.0,0.0,0.0,0.0,15.0
27.25,0.0,0.0,0.0,0.0,0.0,0.0,0.0,15.0
27.25,0.0,0.0,0.0,0.0,0.0,0.0,0.0,15.0
27.25,0.0,0.0,0.0,0.0,0.0,0.0,0.0,15.0
27.31,0.0,0.0,0.0,0.0,0.0,0.0,0.0,15.0
27.29,0.0,0.0,0.0,0.0,0.0,0.0,0.0,15.0
27.29,0.0,0.0,0.0,0.0,0.0,0.0,0.0,15.0
27.49,0.0,0.0,0.0,0.0,0.0,0.0,0.0,15.0
27.47,0.0,0.0,0.0,0.0,0.0,0.0,0.0,15.0
27.59,0.0,0.0,0.0,0.0,0.0,0.0,0.0,15.0
27.59,0.0,0.0,0.0,0.0,0.0,0.0,0.0,15.0
27.55,0.0,0.0,0.0,0.0,0.0,0.0,0.0,15.0
27.41,0.0,0.0,0.0,0.0,0.0,0.0,0.0,15.0
27.49,0.0,0.0,0.0,0.0,0.0,0.0,0.0,15.0
27.49,0.0,0.0,0.0,0.0,0.0,0.0,0.0,15.0
27.61,0.0,0.0,0.0,0.0,0.0,0.0,0.0,15.0
27.53,0.0,0.0,0.0,0.0,0.0,0.0,0.0,15.0
27.53,0.0,0.0,0.0,0.0,0.0,0.0,0.0,15.0
27.49,0.0,0.0,0.0,0.0,0.0,0.0,0.0,15.0
27.53,0.0,0.0,0.0,0.0,0.0,0.0,0.0,15.0
27.49,0.0,0.0,0.0,0.0,0.0,0.0,0.0,15.0
27.55,0.0,0.0,0.0,0.0,0.0,0.0,0.0,15.0
27.49,0.0,0.0,0.0,0.0,0.0,0.0,0.0,15.0
27.59,0.0,0.0,0.0,0.0,0.0,0.0,0.0,15.0
27.55,0.0,0.0,0.0,0.0,0.0,0.0,0.0,15.0
27.55,0.0,0.0,0.0,0.0,0.0,0.0,0.0,15.0
27.53,0.0,0.0,0.0,0.0,0.0,0.0,0.0,15.0
27.53,0.0,0.0,0.0,0.0,0.0,0.0,0.0,15.0
27.49,0.0,0.0,0.0,0.0,0.0,0.0,0.0,15.0
27.37,0.0,0.0,0.0,0.0,0.0,0.0,0.0,15.0
27.41,0.0,0.0,0.0,0.0,0.0,0.0,0.0,15.0
27.41,0.0,0.0,0.0,0.0,0.0,0.0,0.0,15.0
27.49,0.0,0.0,0.0,0.0,0.0,0.0,0.0,15.0
27.43,0.0,0.0,0.0,0.0,0.0,0.0,0.0,15.0
27.43,0.0,0.0,0.0,0.0,0.0,0.0,0.0,15.0
27.43,0.0,0.0,0.0,0.0,0.0,0.0,0.0,15.0
27.47,0.0,0.0,0.0,0.0,0.0,0.0,0.0,15.0
27.49,0.0,0.0,0.0,0.0,0.0,0.0,0.0,15.0
27.49,0.0,0.0,0.0,0.0,0.0,0.0,0.0,15.0
27.43,0.0,0.0,0.0,0.0,0.0,0.0,0.0,15.0
27.41,0.0,0.0,0.0,0.0,0.0,0.0,0.0,15.0
27.41,0.0,0.0,0.0,0.0,0.0,0.0,0.0,15.0
27.41,0.0,0.0,0.0,0.0,0.0,0.0,0.0,15.0
27.37,0.0,0.0,0.0,0.0,0.0,0.0,0.0,15.0
26.67,0.0,0.0,0.0,0.0,0.0,0.0,0.0,15.0
26.85,0.0,0.0,0.0,0.0,0.0,0.0,0.0,15.0
26.93,0.0,0.0,0.0,0.0,0.0,0.0,0.0,15.0
26.99,0.0,0.0,0.0,0.0,0.0,0.0,0.0,15.0
27.23,0.0,0.0,0.0,0.0,0.0,0.0,0.0,15.0
27.25,0.0,0.0,0.0,0.0,0.0,0.0,0.0,15.0
27.41,0.0,0.0,0.0,0.0,0.0,0.0,0.0,15.0
27.41,0.0,0.0,0.0,0.0,0.0,0.0,0.0,15.0
27.43,0.0,0.0,0.0,0.0,0.0,0.0,0.0,15.0
27.43,0.0,0.0,0.0,0.0,0.0,0.0,0.0,15.0
27.37,0.0,0.0,0.0,0.0,0.0,0.0,0.0,15.0
27.37,0.0,0.0,0.0,0.0,0.0,0.0,0.0,15.0
27.37,0.0,0.0,0.0,0.0,0.0,0.0,0.0,15.0
27.37,0.0,0.0,0.0,0.0,0.0,0.0,0.0,15.0
27.35,0.0,0.0,0.0,0.0,0.0,0.0,0.0,15.0
27.35,0.0,0.0,0.0,0.0,0.0,0.0,0.0,15.0
27.23,0.0,0.0,0.0,0.0,0.0,0.0,0.0,15.0
27.21,0.0,0.0,0.0,0.0,0.0,0.0,0.0,15.0
27.23,0.0,0.0,0.0,0.0,0.0,0.0,0.0,15.0
27.23,0.0,0.0,0.0,0.0,0.0,0.0,0.0,15.0
27.23,0.0,0.0,0.0,0.0,0.0,0.0,0.0,15.0
27.17,0.0,0.0,0.0,0.0,0.0,0.0,0.0,15.0
27.21,0.0,0.0,0.0,0.0,0.0,0.0,0.0,15.0
27.21,0.0,0.0,0.0,0.0,0.0,0.0,0.0,15.0
27.15,0.0,0.0,0.0,0.0,0.0,0.0,0.0,15.0
27.11,0.0,0.0,0.0,0.0,0.0,0.0,0.0,15.0
27.21,0.0,0.0,0.0,0.0,0.0,0.0,0.0,15.0
27.17,0.0,0.0,0.0,0.0,0.0,0.0,0.0,15.0
27.21,0.0,0.0,0.0,0.0,0.0,0.0,0.0,15.0
27.17,0.0,0.0,0.0,0.0,0.0,0.0,0.0,15.0
27.17,0.0,0.0,0.0,0.0,0.0,0.0,0.0,15.0
27.17,0.0,0.0,0.0,0.0,0.0,0.0,0.0,15.0
27.17,0.0,0.0,0.0,0.0,0.0,0.0,0.0,15.0
27.17,0.0,0.0,0.0,0.0,0.0,0.0,0.0,15.0
27.21,0.0,0.0,0.0,0.0,0.0,0.0,0.0,15.0
27.23,0.0,0.0,0.0,0.0,0.0,0.0,0.0,15.0
27.17,0.0,0.0,0.0,0.0,0.0,0.0,0.0,15.0
27.23,0.0,0.0,0.0,0.0,0.0,0.0,0.0,15.0
27.23,0.0,0.0,0.0,0.0,0.0,0.0,0.0,15.0
27.17,0.0,0.0,0.0,0.0,0.0,0.0,0.0,15.0
27.21,0.0,0.0,0.0,0.0,0.0,0.0,0.0,15.0
27.21,0.0,0.0,0.0,0.0,0.0,0.0,0.0,15.0
27.23,0.0,0.0,0.0,0.0,0.0,0.0,0.0,15.0
27.17,0.0,0.0,0.0,0.0,0.0,0.0,2.0,15.0
27.21,0.0,0.0,0.0,0.0,0.0,0.0,0.0,15.0
27.25,0.0,0.0,0.0,0.0,0.0,0.0,0.0,15.0
27.21,0.0,0.0,0.0,0.0,0.0,0.0,0.0,15.0
27.21,0.0,0.0,0.0,0.0,0.0,0.0,0.0,15.0
27.21,0.0,0.0,0.0,0.0,0.0,0.0,0.0,15.0
27.35,0.0,0.0,0.0,0.0,0.0,0.0,0.0,15.0
27.25,0.0,0.0,0.0,0.0,0.0,0.0,0.0,15.0
27.25,0.0,0.0,0.0,0.0,0.0,0.0,0.0,15.0
27.23,0.0,0.0,0.0,0.0,0.0,0.0,0.0,15.0
27.17,0.0,0.0,0.0,0.0,0.0,0.0,0.0,15.0
27.23,0.0,0.0,0.0,0.0,0.0,0.0,0.0,15.0
27.17,0.0,0.0,0.0,0.0,0.0,0.0,0.0,15.0
27.17,0.0,0.0,0.0,0.0,0.0,0.0,0.0,15.0
27.21,0.0,0.0,0.0,0.0,0.0,0.0,0.0,15.0
27.21,0.0,0.0,0.0,0.0,0.0,0.0,0.0,15.0
27.23,0.0,0.0,0.0,0.0,0.0,0.0,0.0,15.0
27.23,0.0,0.0,0.0,0.0,0.0,0.0,0.0,15.0
27.17,0.0,0.0,0.0,0.0,0.0,0.0,0.0,15.0
27.21,0.0,0.0,0.0,0.0,0.0,0.0,0.0,15.0
27.21,0.0,0.0,0.0,0.0,0.0,0.0,0.0,15.0
27.17,0.0,0.0,0.0,0.0,0.0,0.0,0.0,15.0
27.17,0.0,0.0,0.0,0.0,0.0,0.0,0.0,15.0
27.11,0.0,0.0,0.0,0.0,0.0,0.0,0.0,15.0
26.87,0.0,0.0,0.0,0.0,0.0,0.0,0.0,15.0
26.23,0.0,0.0,0.0,0.0,0.0,0.0,0.0,15.0
26.29,0.0,0.0,0.0,0.0,0.0,0.0,0.0,15.0
26.27,0.0,0.0,0.0,0.0,0.0,0.0,0.0,15.0
26.49,0.0,0.0,0.0,0.0,0.0,0.0,0.0,15.0
26.79,0.0,0.0,0.0,0.0,0.0,0.0,0.0,15.0
26.79,0.0,0.0,0.0,0.0,0.0,0.0,0.0,15.0
26.77,0.0,0.0,0.0,0.0,0.0,0.0,0.0,15.0
26.73,0.0,0.0,0.0,0.0,0.0,0.0,0.0,15.0
26.53,0.0,0.0,0.0,0.0,0.0,0.0,0.0,15.0
26.61,0.0,0.0,0.0,0.0,0.0,0.0,0.0,15.0
26.41,0.0,0.0,0.0,0.0,0.0,0.0,0.0,15.0
26.37,0.0,0.0,0.0,0.0,0.0,0.0,0.0,15.0
26.35,0.0,0.0,0.0,0.0,0.0,0.0,0.0,15.0
26.53,0.0,0.0,0.0,0.0,0.0,0.0,0.0,15.0
26.49,0.0,0.0,0.0,0.0,0.0,0.0,0.0,21.0
26.41,0.0,0.0,0.0,0.0,0.0,0.0,0.0,30.0
26.43,0.0,0.0,0.0,0.0,0.0,0.0,0.0,34.0
26.47,0.0,0.0,0.0,0.0,0.0,0.0,0.0,41.0
26.55,0.0,0.0,0.0,0.0,0.0,0.0,0.0,52.0
26.73,0.0,0.0,0.0,0.0,0.0,0.0,0.0,61.0
26.79,0.0,0.0,0.0,0.0,0.0,0.0,0.0,71.0
26.41,0.0,0.0,0.0,0.0,0.0,0.0,0.0,81.0
26.29,0.0,0.0,0.0,0.0,0.0,0.0,136.0,91.0
26.27,0.0,299.0,0.0,0.0,0.0,0.0,1641.0,100.0
26.31,0.0,345.0,0.0,0.0,0.0,0.0,1749.0,100.0
26.27,0.0,336.0,0.0,0.0,0.0,0.0,1801.0,100.0
26.21,0.0,348.0,0.0,0.0,0.0,0.0,1819.0,100.0
26.27,0.0,363.0,0.0,0.0,0.0,0.0,1844.0,100.0
26.27,0.0,371.0,0.0,0.0,0.0,0.0,1850.0,100.0
26.35,0.0,0.0,0.0,0.0,0.0,0.0,1250.0,100.0
26.23,0.0,0.0,0.0,0.0,0.0,0.0,1294.0,100.0
26.23,0.0,0.0,0.0,0.0,0.0,0.0,176.0,100.0
26.27,0.0,0.0,0.0,0.0,0.0,0.0,309.0,100.0
26.27,0.0,0.0,0.0,0.0,0.0,0.0,317.0,100.0
26.27,0.0,0.0,0.0,0.0,0.0,0.0,334.0,100.0
26.35,0.0,0.0,0.0,0.0,0.0,0.0,352.0,100.0
26.37,0.0,0.0,0.0,0.0,0.0,0.0,368.0,100.0
26.41,0.0,0.0,0.0,0.0,0.0,0.0,378.0,100.0
26.37,0.0,0.0,0.0,0.0,0.0,0.0,387.0,100.0
26.41,0.0,0.0,0.0,0.0,0.0,0.0,399.0,100.0
26.41,0.0,0.0,0.0,0.0,0.0,0.0,398.0,100.0
26.35,0.0,0.0,0.0,0.0,0.0,0.0,406.0,100.0
26.35,0.0,0.0,0.0,0.0,0.0,0.0,406.0,100.0
26.31,0.0,0.0,0.0,0.0,0.0,0.0,415.0,100.0
26.37,0.0,0.0,0.0,0.0,0.0,0.0,412.0,100.0
26.35,0.0,0.0,0.0,0.0,0.0,0.0,413.0,100.0
26.41,0.0,0.0,0.0,0.0,0.0,0.0,417.0,100.0
26.35,0.0,0.0,0.0,0.0,0.0,0.0,414.0,100.0
26.29,0.0,0.0,0.0,0.0,0.0,0.0,414.0,100.0
26.41,0.0,0.0,0.0,0.0,0.0,0.0,413.0,100.0
26.29,0.0,0.0,0.0,0.0,0.0,0.0,417.0,100.0
26.35,0.0,0.0,0.0,0.0,0.0,0.0,422.0,100.0
26.35,0.0,0.0,0.0,0.0,0.0,0.0,422.0,100.0
26.37,0.0,0.0,0.0,0.0,0.0,0.0,425.0,100.0
26.37,0.0,0.0,0.0,0.0,0.0,0.0,445.0,100.0
26.35,0.0,0.0,0.0,0.0,0.0,0.0,461.0,100.0
26.41,0.0,0.0,0.0,0.0,0.0,0.0,446.0,100.0
26.43,0.0,0.0,0.0,0.0,0.0,0.0,459.0,100.0
26.47,0.0,0.0,0.0,0.0,0.0,0.0,467.0,100.0
26.43,0.0,0.0,0.0,0.0,0.0,0.0,465.0,100.0
26.43,0.0,0.0,0.0,0.0,0.0,0.0,462.0,100.0
26.37,0.0,0.0,0.0,0.0,0.0,0.0,451.0,100.0
26.41,0.0,0.0,0.0,0.0,0.0,0.0,459.0,100.0
26.37,0.0,0.0,0.0,0.0,0.0,0.0,468.0,100.0
26.43,0.0,0.0,0.0,0.0,0.0,0.0,459.0,100.0
26.43,0.0,0.0,0.0,0.0,0.0,0.0,472.0,100.0
26.41,0.0,0.0,0.0,0.0,0.0,0.0,470.0,100.0
26.43,0.0,0.0,0.0,0.0,0.0,0.0,490.0,100.0
26.41,0.0,0.0,0.0,0.0,0.0,0.0,503.0,100.0
26.47,0.0,0.0,0.0,0.0,0.0,0.0,477.0,100.0
26.47,0.0,0.0,0.0,0.0,0.0,0.0,494.0,100.0
26.43,0.0,0.0,0.0,0.0,0.0,0.0,520.0,100.0
26.43,0.0,0.0,0.0,0.0,0.0,0.0,504.0,100.0
26.47,0.0,0.0,0.0,0.0,0.0,0.0,496.0,100.0
26.37,0.0,0.0,0.0,0.0,0.0,0.0,508.0,100.0
26.53,0.0,0.0,0.0,0.0,0.0,0.0,445.0,100.0
26.47,0.0,0.0,0.0,0.0,0.0,0.0,530.0,100.0
26.47,0.0,0.0,0.0,0.0,0.0,0.0,550.0,100.0
26.47,0.0,0.0,0.0,0.0,0.0,0.0,527.0,100.0
26.47,0.0,0.0,0.0,0.0,0.0,0.0,525.0,100.0
26.43,0.0,0.0,0.0,0.0,0.0,0.0,529.0,100.0
26.47,0.0,0.0,0.0,0.0,0.0,0.0,531.0,100.0
26.43,0.0,0.0,0.0,0.0,0.0,0.0,537.0,100.0
26.43,0.0,0.0,0.0,0.0,0.0,0.0,538.0,100.0
26.41,0.0,0.0,0.0,0.0,0.0,0.0,536.0,100.0
26.43,0.0,0.0,0.0,0.0,0.0,0.0,543.0,100.0
26.49,0.0,0.0,0.0,0.0,0.0,0.0,542.0,100.0
26.41,0.0,0.0,0.0,0.0,0.0,0.0,543.0,100.0
26.55,0.0,0.0,0.0,0.0,0.0,0.0,533.0,100.0
26.61,0.0,0.0,0.0,0.0,0.0,0.0,540.0,100.0
26.53,0.0,0.0,0.0,0.0,0.0,0.0,552.0,100.0
26.55,0.0,0.0,0.0,0.0,0.0,0.0,546.0,100.0
26.55,0.0,0.0,0.0,0.0,0.0,0.0,545.0,100.0
26.55,0.0,0.0,0.0,0.0,0.0,0.0,550.0,100.0
26.49,0.0,0.0,0.0,0.0,0.0,0.0,561.0,100.0
26.53,0.0,0.0,0.0,0.0,0.0,0.0,562.0,100.0
26.49,0.0,0.0,0.0,0.0,0.0,0.0,567.0,100.0
26.55,0.0,0.0,0.0,0.0,0.0,0.0,560.0,100.0
26.53,0.0,0.0,0.0,0.0,0.0,0.0,561.0,100.0
26.49,0.0,0.0,0.0,0.0,0.0,0.0,545.0,100.0
26.47,0.0,0.0,0.0,0.0,0.0,0.0,543.0,100.0
26.53,0.0,0.0,0.0,0.0,0.0,0.0,546.0,100.0
26.49,0.0,0.0,0.0,0.0,0.0,0.0,549.0,100.0
26.49,0.0,0.0,0.0,0.0,0.0,0.0,544.0,100.0
26.53,0.0,0.0,0.0,0.0,0.0,0.0,546.0,100.0
26.53,0.0,0.0,0.0,0.0,0.0,0.0,560.0,100.0
26.47,0.0,0.0,0.0,0.0,0.0,0.0,547.0,100.0
26.59,0.0,0.0,0.0,0.0,0.0,0.0,550.0,100.0
26.49,0.0,0.0,0.0,0.0,0.0,0.0,550.0,100.0
26.53,0.0,0.0,0.0,0.0,0.0,0.0,531.0,100.0
26.53,0.0,0.0,0.0,0.0,0.0,0.0,560.0,100.0
26.55,0.0,0.0,0.0,0.0,0.0,0.0,572.0,100.0
26.43,0.0,0.0,0.0,0.0,0.0,0.0,568.0,100.0
26.47,0.0,0.0,0.0,0.0,0.0,0.0,569.0,100.0
26.47,0.0,0.0,0.0,0.0,0.0,0.0,562.0,100.0
26.49,0.0,0.0,0.0,0.0,0.0,0.0,561.0,100.0
26.47,0.0,0.0,0.0,0.0,0.0,0.0,562.0,100.0
26.41,0.0,0.0,0.0,0.0,0.0,0.0,564.0,100.0
26.43,0.0,0.0,0.0,0.0,0.0,0.0,556.0,100.0
26.49,0.0,0.0,0.0,0.0,0.0,0.0,564.0,100.0
26.43,0.0,0.0,0.0,0.0,0.0,0.0,471.0,100.0
26.43,0.0,0.0,0.0,0.0,0.0,0.0,536.0,100.0
26.49,0.0,0.0,0.0,0.0,0.0,0.0,542.0,100.0
26.41,0.0,0.0,0.0,0.0,0.0,0.0,540.0,100.0
26.47,0.0,0.0,0.0,0.0,0.0,0.0,549.0,100.0
26.47,0.0,0.0,0.0,0.0,0.0,0.0,540.0,100.0
26.47,0.0,0.0,0.0,0.0,0.0,0.0,548.0,100.0
26.47,0.0,0.0,0.0,0.0,0.0,0.0,555.0,100.0
26.53,0.0,0.0,0.0,0.0,0.0,0.0,553.0,100.0
26.49,0.0,0.0,0.0,0.0,0.0,0.0,556.0,100.0
26.43,0.0,0.0,0.0,0.0,0.0,0.0,544.0,100.0
26.55,0.0,0.0,0.0,0.0,0.0,0.0,554.0,100.0
26.53,0.0,0.0,0.0,0.0,0.0,0.0,548.0,100.0
26.49,0.0,0.0,0.0,0.0,0.0,0.0,554.0,100.0
26.49,0.0,0.0,0.0,0.0,0.0,0.0,543.0,100.0
26.49,0.0,0.0,0.0,0.0,0.0,0.0,559.0,100.0
26.53,0.0,0.0,0.0,0.0,0.0,0.0,554.0,100.0
26.55,0.0,0.0,0.0,0.0,0.0,0.0,546.0,100.0
26.55,0.0,0.0,0.0,0.0,0.0,0.0,554.0,100.0
26.59,0.0,0.0,0.0,0.0,0.0,0.0,559.0,100.0
26.49,0.0,0.0,0.0,0.0,0.0,0.0,553.0,100.0
26.53,0.0,0.0,0.0,0.0,0.0,0.0,556.0,100.0
26.49,0.0,0.0,0.0,0.0,0.0,0.0,558.0,100.0
26.55,0.0,0.0,0.0,0.0,0.0,0.0,566.0,100.0
26.49,0.0,0.0,0.0,0.0,0.0,0.0,570.0,100.0
26.55,0.0,0.0,0.0,0.0,0.0,0.0,564.0,15.0
26.53,0.0,0.0,0.0,0.0,0.0,0.0,0.0,15.0
26.79,0.0,0.0,0.0,0.0,0.0,0.0,0.0,15.0
26.83,0.0,0.0,0.0,0.0,0.0,0.0,0.0,15.0
26.77,0.0,0.0,0.0,0.0,0.0,0.0,0.0,15.0
26.77,0.0,0.0,0.0,0.0,0.0,0.0,0.0,15.0
26.91,0.0,0.0,0.0,0.0,0.0,0.0,0.0,15.0
26.93,0.0,0.0,0.0,0.0,0.0,0.0,0.0,15.0
27.03,0.0,0.0,0.0,0.0,0.0,0.0,0.0,15.0
27.09,0.0,0.0,0.0,0.0,0.0,0.0,0.0,15.0
27.09,0.0,0.0,0.0,0.0,0.0,0.0,0.0,15.0
27.09,0.0,0.0,0.0,0.0,0.0,0.0,0.0,15.0
27.09,0.0,0.0,0.0,0.0,0.0,0.0,0.0,15.0
27.05,0.0,0.0,0.0,0.0,0.0,0.0,0.0,15.0
26.85,0.0,0.0,0.0,0.0,0.0,0.0,0.0,15.0
26.83,0.0,0.0,0.0,0.0,0.0,0.0,0.0,15.0
26.85,0.0,0.0,0.0,0.0,0.0,0.0,0.0,15.0
26.83,0.0,0.0,0.0,0.0,0.0,0.0,0.0,15.0
26.85,0.0,0.0,0.0,0.0,0.0,0.0,0.0,15.0
26.87,0.0,0.0,0.0,0.0,0.0,0.0,0.0,15.0
26.93,0.0,0.0,0.0,0.0,0.0,0.0,0.0,15.0
27.05,0.0,0.0,0.0,0.0,0.0,0.0,0.0,15.0
27.05,0.0,0.0,0.0,0.0,0.0,0.0,0.0,15.0
27.09,0.0,0.0,0.0,0.0,0.0,0.0,0.0,15.0
27.09,0.0,0.0,0.0,0.0,0.0,0.0,0.0,15.0
27.05,0.0,0.0,0.0,0.0,0.0,0.0,0.0,15.0
26.93,0.0,0.0,0.0,0.0,0.0,0.0,0.0,15.0
27.05,0.0,0.0,0.0,0.0,0.0,0.0,0.0,15.0
27.21,0.0,0.0,0.0,0.0,0.0,0.0,0.0,15.0
27.61,0.0,0.0,0.0,0.0,0.0,0.0,0.0,15.0
28.51,0.0,0.0,0.0,0.0,0.0,0.0,0.0,15.0
29.49,0.0,0.0,0.0,0.0,0.0,0.0,0.0,15.0
31.11,0.0,0.0,0.0,0.0,0.0,0.0,0.0,15.0
32.63,0.0,0.0,0.0,0.0,0.0,0.0,0.0,15.0
33.95,0.0,0.0,0.0,0.0,0.0,0.0,0.0,15.0
34.03,0.0,0.0,0.0,0.0,0.0,0.0,0.0,15.0
34.17,0.0,0.0,0.0,0.0,0.0,0.0,0.0,15.0
34.17,0.0,0.0,0.0,0.0,0.0,0.0,0.0,15.0
33.41,0.0,0.0,0.0,0.0,0.0,0.0,0.0,15.0
32.27,0.0,0.0,0.0,0.0,0.0,0.0,0.0,15.0
29.19,0.0,0.0,0.0,0.0,0.0,0.0,0.0,15.0
27.41,0.0,0.0,0.0,0.0,0.0,0.0,0.0,15.0
27.21,0.0,0.0,0.0,0.0,0.0,0.0,0.0,15.0
27.17,0.0,0.0,0.0,0.0,0.0,0.0,0.0,15.0
27.15,0.0,0.0,0.0,0.0,0.0,0.0,0.0,15.0
27.15,0.0,0.0,0.0,0.0,0.0,0.0,0.0,15.0
27.05,0.0,0.0,0.0,0.0,0.0,0.0,0.0,15.0
27.15,0.0,0.0,0.0,0.0,0.0,0.0,0.0,15.0
27.21,0.0,0.0,0.0,0.0,0.0,0.0,0.0,15.0
27.11,0.0,0.0,0.0,0.0,0.0,0.0,0.0,15.0
27.11,0.0,0.0,0.0,0.0,0.0,0.0,0.0,15.0
27.15,0.0,0.0,0.0,0.0,0.0,0.0,0.0,15.0
27.11,0.0,0.0,0.0,0.0,0.0,0.0,0.0,15.0
27.09,0.0,0.0,0.0,0.0,0.0,0.0,0.0,15.0
27.05,0.0,0.0,0.0,0.0,0.0,0.0,0.0,15.0
27.03,0.0,0.0,0.0,0.0,0.0,0.0,0.0,15.0
27.03,0.0,0.0,0.0,0.0,0.0,0.0,0.0,15.0
27.09,0.0,0.0,0.0,0.0,0.0,0.0,0.0,15.0
27.29,0.0,0.0,0.0,0.0,0.0,0.0,0.0,15.0
27.05,0.0,0.0,0.0,0.0,0.0,0.0,0.0,15.0
27.05,0.0,0.0,0.0,0.0,0.0,0.0,0.0,15.0
27.17,0.0,0.0,0.0,0.0,0.0,0.0,0.0,15.0
26.93,0.0,0.0,0.0,0.0,0.0,0.0,0.0,15.0
26.85,0.0,0.0,0.0,0.0,0.0,0.0,0.0,15.0
26.99,0.0,0.0,0.0,0.0,0.0,0.0,0.0,15.0
27.43,0.0,0.0,0.0,0.0,0.0,0.0,0.0,15.0
26.85,0.0,0.0,0.0,0.0,0.0,0.0,0.0,15.0
26.77,0.0,0.0,0.0,0.0,0.0,0.0,0.0,15.0
26.77,0.0,0.0,0.0,0.0,0.0,0.0,0.0,15.0
26.77,0.0,0.0,0.0,0.0,0.0,0.0,0.0,15.0
26.77,0.0,0.0,0.0,0.0,0.0,0.0,0.0,15.0
26.73,0.0,0.0,0.0,0.0,0.0,0.0,0.0,15.0
26.85,0.0,0.0,0.0,0.0,0.0,0.0,0.0,15.0
27.15,0.0,0.0,0.0,0.0,0.0,0.0,0.0,15.0
27.23,0.0,0.0,0.0,0.0,0.0,0.0,0.0,15.0
27.21,0.0,0.0,0.0,0.0,0.0,0.0,0.0,15.0
27.23,0.0,0.0,0.0,0.0,0.0,0.0,0.0,15.0
27.25,0.0,0.0,0.0,0.0,0.0,0.0,0.0,15.0
27.23,0.0,0.0,0.0,0.0,0.0,0.0,0.0,15.0
27.25,0.0,0.0,0.0,0.0,0.0,0.0,0.0,15.0
27.17,0.0,0.0,0.0,0.0,0.0,0.0,0.0,15.0
27.25,0.0,0.0,0.0,0.0,0.0,0.0,0.0,15.0
27.25,0.0,0.0,0.0,0.0,0.0,0.0,0.0,15.0
27.21,0.0,0.0,0.0,0.0,0.0,0.0,0.0,15.0
27.25,0.0,0.0,0.0,0.0,0.0,0.0,0.0,15.0
27.21,0.0,0.0,0.0,0.0,0.0,0.0,0.0,15.0
27.21,0.0,0.0,0.0,0.0,0.0,0.0,0.0,15.0
27.21,0.0,0.0,0.0,0.0,0.0,0.0,0.0,15.0
27.11,0.0,0.0,0.0,0.0,0.0,0.0,0.0,15.0
27.21,0.0,0.0,0.0,0.0,0.0,0.0,0.0,15.0
27.17,0.0,0.0,0.0,0.0,0.0,0.0,0.0,15.0
27.21,0.0,0.0,0.0,0.0,0.0,0.0,0.0,15.0
27.43,0.0,0.0,0.0,0.0,0.0,0.0,0.0,15.0
27.47,0.0,0.0,0.0,0.0,0.0,0.0,0.0,15.0
27.53,0.0,0.0,0.0,0.0,0.0,0.0,0.0,15.0
27.49,0.0,0.0,0.0,0.0,0.0,0.0,0.0,15.0
27.49,0.0,0.0,0.0,0.0,0.0,0.0,0.0,15.0
27.43,0.0,0.0,0.0,0.0,0.0,0.0,0.0,15.0
27.49,0.0,0.0,0.0,0.0,0.0,0.0,0.0,15.0
27.59,0.0,0.0,0.0,0.0,0.0,0.0,0.0,15.0
27.55,0.0,0.0,0.0,0.0,0.0,0.0,0.0,15.0
27.53,0.0,0.0,0.0,0.0,0.0,0.0,0.0,15.0
27.49,0.0,0.0,0.0,0.0,0.0,0.0,0.0,15.0
27.55,0.0,0.0,0.0,0.0,0.0,0.0,0.0,15.0
27.53,0.0,0.0,0.0,0.0,0.0,0.0,0.0,15.0
27.47,0.0,0.0,0.0,0.0,0.0,0.0,0.0,15.0
27.47,0.0,0.0,0.0,0.0,0.0,0.0,0.0,15.0
27.47,0.0,0.0,0.0,0.0,0.0,0.0,0.0,15.0
27.43,0.0,0.0,0.0,0.0,0.0,0.0,0.0,15.0
27.49,0.0,0.0,0.0,0.0,0.0,0.0,0.0,15.0
27.41,0.0,0.0,0.0,0.0,0.0,0.0,0.0,15.0
27.43,0.0,0.0,0.0,0.0,0.0,0.0,0.0,15.0
27.47,0.0,0.0,0.0,0.0,0.0,0.0,0.0,15.0
27.47,0.0,0.0,0.0,0.0,0.0,0.0,0.0,15.0
27.41,0.0,0.0,0.0,0.0,0.0,0.0,0.0,15.0
27.37,0.0,0.0,0.0,0.0,0.0,0.0,0.0,15.0
27.35,0.0,0.0,0.0,0.0,0.0,0.0,0.0,15.0
27.35,0.0,0.0,0.0,0.0,0.0,0.0,0.0,15.0
27.47,0.0,0.0,0.0,0.0,0.0,0.0,0.0,15.0
27.47,0.0,0.0,0.0,0.0,0.0,0.0,0.0,15.0
27.43,0.0,0.0,0.0,0.0,0.0,0.0,0.0,15.0
27.41,0.0,0.0,0.0,0.0,0.0,0.0,0.0,15.0
27.41,0.0,0.0,0.0,0.0,0.0,0.0,0.0,15.0
27.41,0.0,0.0,0.0,0.0,0.0,0.0,0.0,15.0
27.53,0.0,0.0,0.0,0.0,0.0,0.0,0.0,15.0
27.55,0.0,0.0,0.0,0.0,0.0,0.0,0.0,15.0
27.43,0.0,0.0,0.0,0.0,0.0,0.0,0.0,15.0
27.31,0.0,0.0,0.0,0.0,0.0,0.0,0.0,15.0
27.11,0.0,0.0,0.0,0.0,0.0,0.0,0.0,15.0
27.05,0.0,0.0,0.0,0.0,0.0,0.0,0.0,15.0
27.03,0.0,0.0,0.0,0.0,0.0,0.0,0.0,15.0
26.99,0.0,0.0,0.0,0.0,0.0,0.0,0.0,15.0
27.05,0.0,0.0,0.0,0.0,0.0,0.0,0.0,15.0
27.21,0.0,0.0,0.0,0.0,0.0,0.0,0.0,15.0
27.35,0.0,0.0,0.0,0.0,0.0,0.0,0.0,15.0
27.21,0.0,0.0,0.0,0.0,0.0,0.0,0.0,15.0
27.15,0.0,0.0,0.0,0.0,0.0,0.0,0.0,15.0
27.15,0.0,0.0,0.0,0.0,0.0,0.0,0.0,15.0
27.15,0.0,0.0,0.0,0.0,0.0,0.0,0.0,15.0
27.15,0.0,0.0,0.0,0.0,0.0,0.0,0.0,15.0
28.07,0.0,0.0,0.0,0.0,0.0,0.0,0.0,15.0
28.45,0.0,0.0,0.0,0.0,0.0,0.0,0.0,15.0
28.77,0.0,0.0,0.0,0.0,0.0,0.0,0.0,15.0
28.85,0.0,0.0,0.0,0.0,0.0,0.0,0.0,15.0
28.71,0.0,0.0,0.0,0.0,0.0,0.0,0.0,15.0
28.59,0.0,0.0,0.0,0.0,0.0,0.0,0.0,15.0
28.27,0.0,0.0,0.0,0.0,0.0,0.0,0.0,15.0
28.37,0.0,0.0,0.0,0.0,0.0,0.0,0.0,15.0
28.37,0.0,0.0,0.0,0.0,0.0,0.0,0.0,15.0
28.51,0.0,0.0,0.0,0.0,0.0,0.0,0.0,15.0
30.97,0.0,0.0,0.0,0.0,0.0,0.0,0.0,15.0
34.45,0.0,0.0,0.0,0.0,0.0,0.0,0.0,15.0
36.95,0.0,0.0,0.0,0.0,0.0,0.0,0.0,15.0
37.45,0.0,0.0,0.0,0.0,0.0,0.0,0.0,15.0
37.63,0.0,0.0,0.0,0.0,0.0,0.0,0.0,15.0
37.69,0.0,0.0,0.0,0.0,0.0,0.0,0.0,15.0
37.91,0.0,0.0,0.0,0.0,0.0,0.0,0.0,15.0
38.17,0.0,0.0,0.0,0.0,0.0,0.0,0.0,22.0
38.29,0.0,0.0,0.0,0.0,0.0,0.0,0.0,32.0
38.41,0.0,0.0,0.0,0.0,0.0,0.0,0.0,42.0
38.43,0.0,0.0,0.0,0.0,0.0,0.0,0.0,48.0
37.91,0.0,0.0,0.0,0.0,0.0,0.0,0.0,48.0
37.11,0.0,0.0,0.0,0.0,0.0,0.0,0.0,54.0
37.03,0.0,0.0,0.0,0.0,0.0,0.0,0.0,64.0
36.71,0.0,0.0,0.0,0.0,0.0,0.0,1881.0,75.0
36.55,0.0,0.0,0.0,0.0,0.0,0.0,2689.0,86.0
36.41,0.0,0.0,0.0,0.0,0.0,0.0,2834.0,95.0
36.45,0.0,0.0,0.0,0.0,0.0,0.0,2857.0,100.0
36.47,0.0,0.0,0.0,0.0,0.0,0.0,2813.0,100.0
36.57,0.0,0.0,0.0,0.0,0.0,0.0,2912.0,100.0
36.47,0.0,0.0,0.0,0.0,0.0,0.0,2965.0,100.0
36.57,0.0,0.0,0.0,0.0,0.0,0.0,2986.0,100.0
36.57,0.0,0.0,0.0,0.0,0.0,0.0,3009.0,100.0
36.53,0.0,5.0,0.0,0.0,0.0,0.0,3025.0,100.0
36.57,0.0,0.0,0.0,0.0,0.0,0.0,3026.0,100.0
36.65,0.0,50.0,0.0,0.0,0.0,0.0,3083.0,100.0
36.65,0.0,48.0,0.0,0.0,0.0,0.0,3106.0,100.0
36.69,0.0,33.0,0.0,0.0,0.0,0.0,3133.0,100.0
36.73,0.0,23.0,0.0,0.0,0.0,0.0,3168.0,100.0
36.65,0.0,11.0,0.0,0.0,0.0,0.0,3169.0,100.0
36.61,0.0,12.0,0.0,0.0,0.0,0.0,3198.0,100.0
36.61,0.0,0.0,0.0,0.0,0.0,0.0,3223.0,100.0
36.61,0.0,0.0,0.0,0.0,0.0,0.0,3234.0,100.0
36.57,0.0,0.0,0.0,0.0,0.0,0.0,3233.0,100.0
36.61,0.0,0.0,0.0,0.0,0.0,0.0,3234.0,100.0
36.55,0.0,0.0,0.0,0.0,0.0,0.0,3235.0,100.0
36.57,0.0,0.0,0.0,0.0,0.0,0.0,3244.0,100.0
36.57,0.0,0.0,0.0,0.0,0.0,0.0,3236.0,100.0
36.65,0.0,0.0,0.0,0.0,0.0,0.0,3235.0,100.0
36.65,0.0,0.0,0.0,0.0,0.0,0.0,3243.0,100.0
36.61,0.0,0.0,0.0,0.0,0.0,0.0,3252.0,100.0
36.61,0.0,0.0,0.0,0.0,0.0,0.0,3270.0,100.0
36.61,0.0,0.0,0.0,0.0,0.0,0.0,3264.0,100.0
36.63,0.0,0.0,0.0,0.0,0.0,0.0,3260.0,100.0
36.61,0.0,0.0,0.0,0.0,0.0,0.0,3253.0,100.0
36.57,0.0,14.0,0.0,0.0,0.0,0.0,3212.0,100.0
36.55,0.0,5.0,0.0,0.0,0.0,0.0,3184.0,100.0
36.53,0.0,25.0,0.0,0.0,0.0,0.0,3114.0,100.0
36.55,0.0,32.0,0.0,0.0,0.0,0.0,3143.0,100.0
36.55,0.0,32.0,0.0,0.0,0.0,0.0,3143.0,100.0
36.53,0.0,41.0,0.0,0.0,0.0,0.0,3126.0,100.0
36.53,0.0,57.0,0.0,0.0,0.0,0.0,3068.0,100.0
36.55,0.0,48.0,0.0,0.0,0.0,0.0,3062.0,100.0
36.49,0.0,48.0,0.0,0.0,0.0,0.0,3077.0,100.0
36.57,0.0,51.0,0.0,0.0,0.0,0.0,3081.0,100.0
36.49,0.0,27.0,0.0,0.0,0.0,0.0,3142.0,100.0
36.47,0.0,19.0,0.0,0.0,0.0,0.0,3139.0,100.0
36.47,0.0,19.0,0.0,0.0,0.0,0.0,3147.0,100.0
36.53,0.0,0.0,0.0,0.0,0.0,0.0,3220.0,100.0
36.49,0.0,0.0,0.0,0.0,0.0,0.0,3254.0,100.0
36.53,0.0,0.0,0.0,0.0,0.0,0.0,3247.0,100.0
36.55,0.0,0.0,0.0,0.0,0.0,0.0,3262.0,100.0
36.57,0.0,0.0,0.0,0.0,0.0,0.0,3260.0,100.0
36.63,0.0,17.0,0.0,0.0,0.0,0.0,3265.0,100.0
36.53,0.0,0.0,0.0,0.0,0.0,0.0,3259.0,100.0
36.55,0.0,0.0,0.0,0.0,0.0,0.0,3258.0,100.0
36.61,0.0,0.0,0.0,0.0,0.0,0.0,3274.0,100.0
36.53,0.0,0.0,0.0,0.0,0.0,0.0,3268.0,100.0
36.57,0.0,0.0,0.0,0.0,0.0,0.0,3288.0,100.0
36.63,0.0,0.0,0.0,0.0,0.0,0.0,3280.0,100.0
36.63,0.0,0.0,0.0,0.0,0.0,0.0,3277.0,100.0
36.65,0.0,0.0,0.0,0.0,0.0,0.0,3276.0,100.0
36.71,0.0,0.0,0.0,0.0,0.0,0.0,3278.0,100.0
36.65,0.0,0.0,0.0,0.0,0.0,0.0,3284.0,100.0
36.65,0.0,0.0,0.0,0.0,0.0,0.0,3274.0,100.0
36.63,0.0,0.0,0.0,0.0,0.0,0.0,3276.0,100.0
36.61,0.0,0.0,0.0,0.0,0.0,0.0,3287.0,100.0
36.63,0.0,0.0,0.0,0.0,0.0,0.0,3291.0,100.0
36.63,0.0,0.0,0.0,0.0,0.0,0.0,3281.0,100.0
36.57,0.0,0.0,0.0,0.0,0.0,0.0,3283.0,100.0
36.57,0.0,0.0,0.0,0.0,0.0,0.0,3280.0,100.0
36.53,0.0,0.0,0.0,0.0,0.0,0.0,3285.0,100.0
36.53,0.0,0.0,0.0,0.0,0.0,0.0,3288.0,100.0
36.57,0.0,0.0,0.0,0.0,0.0,0.0,3283.0,100.0
36.69,0.0,0.0,0.0,0.0,0.0,0.0,3282.0,100.0
36.73,0.0,0.0,0.0,0.0,0.0,0.0,3282.0,100.0
36.73,0.0,0.0,0.0,0.0,0.0,0.0,3290.0,100.0
36.77,0.0,0.0,0.0,0.0,0.0,0.0,3284.0,100.0
36.87,0.0,0.0,0.0,0.0,0.0,0.0,3291.0,100.0
36.79,0.0,0.0,0.0,0.0,0.0,0.0,3285.0,100.0
36.71,0.0,0.0,0.0,0.0,0.0,0.0,3287.0,100.0
36.73,0.0,0.0,0.0,0.0,0.0,0.0,3284.0,100.0
36.71,0.0,0.0,0.0,0.0,0.0,0.0,3287.0,100.0
36.69,0.0,0.0,0.0,0.0,0.0,0.0,3286.0,100.0
36.71,0.0,0.0,0.0,0.0,0.0,0.0,3294.0,100.0
36.63,0.0,0.0,0.0,0.0,0.0,0.0,3305.0,100.0
36.69,0.0,0.0,0.0,0.0,0.0,0.0,3286.0,100.0
36.65,0.0,0.0,0.0,0.0,0.0,0.0,3300.0,100.0
36.65,0.0,0.0,0.0,0.0,0.0,0.0,3294.0,100.0
36.63,0.0,0.0,0.0,0.0,0.0,0.0,3295.0,100.0
36.61,0.0,0.0,0.0,0.0,0.0,0.0,3291.0,100.0
36.49,0.0,0.0,0.0,0.0,0.0,0.0,3299.0,100.0
36.49,0.0,0.0,0.0,0.0,0.0,0.0,3300.0,100.0
36.55,0.0,0.0,0.0,0.0,0.0,0.0,3301.0,100.0
36.53,0.0,0.0,0.0,0.0,0.0,0.0,3291.0,100.0
36.53,0.0,0.0,0.0,0.0,0.0,0.0,3301.0,100.0
36.55,0.0,0.0,0.0,0.0,0.0,0.0,3309.0,100.0
36.63,0.0,0.0,0.0,0.0,0.0,0.0,3303.0,100.0
36.69,0.0,0.0,0.0,0.0,0.0,0.0,3300.0,100.0
36.69,0.0,0.0,0.0,0.0,0.0,0.0,3298.0,100.0
36.57,0.0,0.0,0.0,0.0,0.0,0.0,3296.0,100.0
36.49,0.0,0.0,0.0,0.0,0.0,0.0,3306.0,100.0
36.55,0.0,0.0,0.0,0.0,0.0,0.0,3305.0,100.0
36.57,0.0,0.0,0.0,0.0,0.0,0.0,3309.0,100.0
36.63,0.0,0.0,0.0,0.0,0.0,0.0,3298.0,100.0
36.57,0.0,0.0,0.0,0.0,0.0,0.0,3301.0,100.0
36.69,0.0,0.0,0.0,0.0,0.0,0.0,3305.0,100.0
36.47,0.0,0.0,0.0,0.0,0.0,0.0,3297.0,100.0
36.55,0.0,0.0,0.0,0.0,0.0,0.0,3297.0,100.0
36.53,0.0,0.0,0.0,0.0,0.0,0.0,3302.0,100.0
36.49,0.0,0.0,0.0,0.0,0.0,0.0,3304.0,100.0
36.49,0.0,0.0,0.0,0.0,0.0,0.0,3299.0,100.0
36.45,0.0,0.0,0.0,0.0,0.0,0.0,3297.0,100.0
36.47,0.0,0.0,0.0,0.0,0.0,0.0,3296.0,100.0
36.45,0.0,0.0,0.0,0.0,0.0,0.0,3295.0,100.0
36.45,0.0,0.0,0.0,0.0,0.0,0.0,3297.0,100.0
36.45,0.0,91.0,0.0,0.0,0.0,0.0,3313.0,100.0
36.39,0.0,0.0,0.0,0.0,0.0,0.0,3305.0,100.0
36.25,0.0,0.0,0.0,0.0,0.0,0.0,3299.0,100.0
36.45,0.0,0.0,0.0,0.0,0.0,0.0,3296.0,100.0
36.39,0.0,0.0,0.0,0.0,0.0,0.0,3298.0,100.0
36.41,0.0,0.0,0.0,0.0,0.0,0.0,3303.0,100.0
36.55,0.0,0.0,0.0,0.0,0.0,0.0,3304.0,100.0
36.47,0.0,0.0,0.0,0.0,0.0,0.0,3296.0,100.0
36.53,0.0,0.0,0.0,0.0,0.0,0.0,3297.0,100.0
36.49,0.0,0.0,0.0,0.0,0.0,0.0,3301.0,100.0
36.49,0.0,60.0,0.0,0.0,0.0,0.0,3303.0,100.0
36.53,0.0,0.0,0.0,0.0,0.0,0.0,3299.0,100.0
36.57,0.0,0.0,0.0,0.0,0.0,0.0,3298.0,100.0
36.55,0.0,0.0,0.0,0.0,0.0,0.0,3296.0,100.0
36.53,0.0,0.0,0.0,0.0,0.0,0.0,3301.0,100.0
36.65,0.0,0.0,0.0,0.0,0.0,0.0,52.0,15.0
27.75,0.0,0.0,0.0,0.0,0.0,0.0,0.0,15.0
27.43,0.0,0.0,0.0,0.0,0.0,0.0,0.0,15.0
27.43,0.0,0.0,0.0,0.0,0.0,0.0,0.0,15.0
27.87,0.0,0.0,0.0,0.0,0.0,0.0,0.0,15.0
28.31,0.0,0.0,0.0,0.0,0.0,0.0,0.0,15.0
28.01,0.0,0.0,0.0,0.0,0.0,0.0,0.0,20.0
28.19,0.0,0.0,0.0,0.0,0.0,0.0,0.0,20.0
28.63,0.0,0.0,0.0,0.0,0.0,0.0,0.0,20.0
27.69,0.0,0.0,0.0,0.0,0.0,0.0,0.0,20.0
26.99,0.0,0.0,0.0,0.0,0.0,0.0,0.0,20.0
26.91,0.0,0.0,0.0,0.0,0.0,0.0,0.0,20.0
26.91,0.0,0.0,0.0,0.0,0.0,0.0,0.0,20.0
26.97,0.0,0.0,0.0,0.0,0.0,0.0,0.0,20.0
27.09,0.0,0.0,0.0,0.0,0.0,0.0,0.0,20.0
27.15,0.0,0.0,0.0,0.0,0.0,0.0,0.0,20.0
27.29,0.0,0.0,0.0,0.0,0.0,0.0,0.0,20.0
27.23,0.0,0.0,0.0,0.0,0.0,0.0,0.0,20.0
27.25,0.0,0.0,0.0,0.0,0.0,0.0,0.0,20.0
27.25,0.0,0.0,0.0,0.0,0.0,0.0,0.0,20.0
27.23,0.0,0.0,0.0,0.0,0.0,0.0,0.0,20.0
27.11,0.0,0.0,0.0,0.0,0.0,0.0,0.0,20.0
27.15,0.0,0.0,0.0,0.0,0.0,0.0,0.0,20.0
27.03,0.0,0.0,0.0,0.0,0.0,0.0,0.0,20.0
26.91,0.0,0.0,0.0,0.0,0.0,0.0,0.0,20.0
27.05,0.0,0.0,0.0,0.0,0.0,0.0,0.0,20.0
27.09,0.0,0.0,0.0,0.0,0.0,0.0,0.0,20.0
27.15,0.0,0.0,0.0,0.0,0.0,0.0,0.0,20.0
27.21,0.0,0.0,0.0,0.0,0.0,0.0,0.0,20.0
27.21,0.0,0.0,0.0,0.0,0.0,0.0,0.0,20.0
27.21,0.0,0.0,0.0,0.0,0.0,0.0,0.0,20.0
27.21,0.0,0.0,0.0,0.0,0.0,0.0,0.0,20.0
27.21,0.0,0.0,0.0,0.0,0.0,0.0,0.0,20.0
27.41,0.0,0.0,0.0,0.0,0.0,0.0,3.0,20.0
27.35,0.0,0.0,0.0,0.0,0.0,0.0,0.0,20.0
27.35,0.0,0.0,0.0,0.0,0.0,0.0,0.0,20.0
27.31,0.0,0.0,0.0,0.0,0.0,0.0,0.0,20.0
27.23,0.0,0.0,0.0,0.0,0.0,0.0,0.0,20.0
27.31,0.0,0.0,0.0,0.0,0.0,0.0,0.0,20.0
27.25,0.0,0.0,0.0,0.0,0.0,0.0,0.0,20.0
27.31,0.0,0.0,0.0,0.0,0.0,0.0,0.0,20.0
27.23,0.0,0.0,0.0,0.0,0.0,0.0,0.0,20.0
27.21,0.0,0.0,0.0,0.0,0.0,0.0,0.0,20.0
27.25,0.0,0.0,0.0,0.0,0.0,0.0,0.0,20.0
27.25,0.0,0.0,0.0,0.0,0.0,0.0,0.0,20.0
27.23,0.0,0.0,0.0,0.0,0.0,0.0,0.0,20.0
27.23,0.0,0.0,0.0,0.0,0.0,0.0,0.0,20.0
27.23,0.0,0.0,0.0,0.0,0.0,0.0,0.0,20.0
27.23,0.0,0.0,0.0,0.0,0.0,0.0,0.0,20.0
27.23,0.0,0.0,0.0,0.0,0.0,0.0,0.0,20.0
27.29,0.0,0.0,0.0,0.0,0.0,0.0,0.0,20.0
27.41,0.0,0.0,0.0,0.0,0.0,0.0,0.0,20.0
27.37,0.0,0.0,0.0,0.0,0.0,0.0,0.0,20.0
27.41,0.0,0.0,0.0,0.0,0.0,0.0,0.0,20.0
27.09,0.0,0.0,0.0,0.0,0.0,0.0,0.0,20.0
27.03,0.0,0.0,0.0,0.0,0.0,0.0,0.0,20.0
26.93,0.0,0.0,0.0,0.0,0.0,0.0,0.0,20.0
26.93,0.0,0.0,0.0,0.0,0.0,0.0,0.0,20.0
26.71,0.0,0.0,0.0,0.0,0.0,0.0,0.0,20.0
26.71,0.0,0.0,0.0,0.0,0.0,0.0,0.0,20.0
26.73,0.0,0.0,0.0,0.0,0.0,0.0,0.0,20.0
26.87,0.0,0.0,0.0,0.0,0.0,0.0,0.0,20.0
27.09,0.0,0.0,0.0,0.0,0.0,0.0,0.0,20.0
27.17,0.0,0.0,0.0,0.0,0.0,0.0,0.0,20.0
27.17,0.0,0.0,0.0,0.0,0.0,0.0,0.0,20.0
27.17,0.0,0.0,0.0,0.0,0.0,0.0,0.0,20.0
27.21,0.0,0.0,0.0,0.0,0.0,0.0,0.0,20.0
27.23,0.0,0.0,0.0,0.0,0.0,0.0,0.0,20.0
27.23,0.0,0.0,0.0,0.0,0.0,0.0,0.0,20.0
27.21,0.0,0.0,0.0,0.0,0.0,0.0,0.0,20.0
27.09,0.0,0.0,0.0,0.0,0.0,0.0,0.0,20.0
27.29,0.0,0.0,0.0,0.0,0.0,0.0,0.0,20.0
27.25,0.0,0.0,0.0,0.0,0.0,0.0,0.0,20.0
27.37,0.0,0.0,0.0,0.0,0.0,0.0,0.0,20.0
28.13,0.0,0.0,0.0,0.0,0.0,0.0,0.0,20.0
27.69,0.0,0.0,0.0,0.0,0.0,0.0,0.0,20.0
27.21,0.0,0.0,0.0,0.0,0.0,0.0,0.0,20.0
27.05,0.0,0.0,0.0,0.0,0.0,0.0,0.0,20.0
27.15,0.0,0.0,0.0,0.0,0.0,0.0,0.0,20.0
27.11,0.0,0.0,0.0,0.0,0.0,0.0,0.0,20.0
27.15,0.0,0.0,0.0,0.0,0.0,0.0,0.0,20.0
27.05,0.0,0.0,0.0,0.0,0.0,0.0,0.0,20.0
27.11,0.0,0.0,0.0,0.0,0.0,0.0,0.0,20.0
27.11,0.0,0.0,0.0,0.0,0.0,0.0,0.0,20.0
27.09,0.0,0.0,0.0,0.0,0.0,0.0,0.0,20.0
27.11,112.0,0.0,0.0,0.0,0.0,0.0,0.0,20.0
27.17,0.0,0.0,0.0,0.0,0.0,0.0,0.0,20.0
27.09,0.0,0.0,0.0,0.0,0.0,0.0,0.0,20.0
27.09,0.0,0.0,0.0,0.0,0.0,0.0,0.0,20.0
27.05,0.0,0.0,0.0,0.0,0.0,0.0,0.0,20.0
27.09,0.0,0.0,0.0,0.0,0.0,0.0,0.0,20.0
27.11,0.0,0.0,0.0,0.0,0.0,0.0,0.0,20.0
27.09,0.0,0.0,0.0,0.0,0.0,0.0,0.0,20.0
27.03,0.0,0.0,0.0,0.0,0.0,0.0,0.0,20.0
26.99,0.0,0.0,0.0,0.0,0.0,0.0,0.0,20.0
26.97,0.0,0.0,0.0,0.0,0.0,0.0,0.0,20.0
26.87,0.0,0.0,0.0,0.0,0.0,0.0,0.0,20.0
26.91,0.0,0.0,0.0,0.0,0.0,0.0,0.0,20.0
26.83,0.0,0.0,0.0,0.0,0.0,0.0,0.0,20.0
26.79,0.0,0.0,0.0,0.0,0.0,0.0,0.0,20.0
26.83,0.0,0.0,0.0,0.0,0.0,0.0,0.0,20.0
26.87,0.0,0.0,0.0,0.0,0.0,0.0,0.0,20.0
26.85,0.0,0.0,0.0,0.0,0.0,0.0,0.0,20.0
26.93,0.0,0.0,0.0,0.0,0.0,0.0,0.0,20.0
26.79,0.0,0.0,0.0,0.0,0.0,0.0,0.0,20.0
26.85,0.0,0.0,0.0,0.0,0.0,0.0,0.0,20.0
26.93,0.0,0.0,0.0,0.0,0.0,0.0,0.0,20.0
26.93,0.0,0.0,0.0,0.0,0.0,0.0,0.0,20.0
26.93,0.0,0.0,24.0,0.0,0.0,0.0,0.0,20.0
26.93,0.0,0.0,0.0,0.0,0.0,0.0,0.0,20.0
26.91,0.0,0.0,0.0,0.0,0.0,0.0,0.0,20.0
26.87,0.0,0.0,0.0,0.0,0.0,0.0,0.0,20.0
26.85,0.0,0.0,0.0,0.0,0.0,0.0,0.0,20.0
26.87,0.0,0.0,0.0,0.0,0.0,0.0,0.0,20.0
26.87,0.0,0.0,0.0,0.0,0.0,0.0,0.0,20.0
26.93,0.0,0.0,0.0,0.0,0.0,0.0,0.0,20.0
26.99,0.0,0.0,0.0,0.0,0.0,0.0,0.0,20.0
26.99,0.0,0.0,0.0,0.0,0.0,0.0,0.0,20.0
27.05,0.0,0.0,0.0,0.0,0.0,0.0,0.0,20.0
27.05,0.0,0.0,0.0,0.0,0.0,0.0,0.0,20.0
27.05,0.0,0.0,0.0,0.0,0.0,0.0,0.0,20.0
27.03,0.0,0.0,0.0,0.0,0.0,0.0,0.0,20.0
27.05,0.0,0.0,0.0,0.0,0.0,0.0,0.0,20.0
27.05,0.0,0.0,0.0,0.0,0.0,0.0,0.0,20.0
27.03,0.0,0.0,0.0,0.0,0.0,0.0,0.0,20.0
27.05,0.0,0.0,0.0,0.0,0.0,0.0,0.0,20.0
26.87,0.0,0.0,0.0,0.0,0.0,0.0,0.0,20.0
26.87,0.0,0.0,0.0,0.0,0.0,0.0,0.0,20.0
26.85,0.0,0.0,0.0,0.0,0.0,0.0,0.0,20.0
26.93,0.0,0.0,0.0,0.0,0.0,0.0,0.0,20.0
26.93,0.0,0.0,0.0,0.0,0.0,0.0,0.0,20.0
26.87,0.0,0.0,0.0,0.0,0.0,0.0,0.0,20.0
26.87,0.0,0.0,0.0,0.0,0.0,0.0,0.0,20.0
26.85,0.0,0.0,0.0,0.0,0.0,0.0,3.0,20.0
26.91,0.0,0.0,0.0,0.0,0.0,0.0,0.0,20.0
26.87,0.0,0.0,0.0,0.0,0.0,0.0,0.0,20.0
26.91,0.0,0.0,0.0,0.0,0.0,0.0,0.0,20.0
26.87,0.0,0.0,0.0,0.0,0.0,0.0,0.0,20.0
26.91,0.0,0.0,0.0,0.0,0.0,0.0,0.0,20.0
26.87,0.0,0.0,0.0,0.0,0.0,0.0,0.0,20.0
26.93,0.0,0.0,0.0,0.0,0.0,0.0,0.0,20.0
26.97,0.0,0.0,0.0,0.0,0.0,0.0,0.0,20.0
26.87,0.0,0.0,0.0,0.0,0.0,0.0,0.0,20.0
26.93,0.0,0.0,0.0,0.0,0.0,0.0,0.0,20.0
26.67,0.0,0.0,0.0,0.0,0.0,0.0,0.0,15.0
26.53,0.0,0.0,0.0,0.0,0.0,0.0,0.0,15.0
26.47,0.0,0.0,0.0,0.0,0.0,0.0,0.0,15.0
26.53,0.0,0.0,0.0,0.0,0.0,0.0,0.0,15.0
26.61,0.0,0.0,0.0,0.0,0.0,0.0,0.0,15.0
26.65,0.0,0.0,0.0,0.0,0.0,0.0,0.0,15.0
26.59,0.0,0.0,0.0,0.0,0.0,0.0,0.0,15.0
26.65,0.0,0.0,0.0,0.0,0.0,0.0,0.0,15.0
26.23,0.0,0.0,0.0,0.0,0.0,0.0,0.0,15.0
26.27,0.0,0.0,0.0,0.0,0.0,0.0,0.0,15.0
26.23,0.0,0.0,0.0,0.0,0.0,0.0,0.0,15.0
26.21,0.0,0.0,0.0,0.0,0.0,0.0,0.0,15.0
26.29,0.0,0.0,0.0,0.0,0.0,0.0,0.0,15.0
26.23,0.0,0.0,0.0,0.0,0.0,0.0,0.0,15.0
26.23,0.0,0.0,0.0,0.0,0.0,0.0,0.0,15.0
26.27,0.0,0.0,0.0,0.0,0.0,0.0,0.0,15.0
26.21,0.0,0.0,0.0,0.0,0.0,0.0,0.0,15.0
26.23,0.0,0.0,0.0,0.0,0.0,0.0,0.0,15.0
26.29,0.0,0.0,0.0,0.0,0.0,0.0,0.0,15.0
26.31,0.0,0.0,0.0,0.0,0.0,0.0,0.0,17.0
26.31,0.0,0.0,0.0,0.0,0.0,0.0,0.0,26.0
26.21,0.0,0.0,0.0,0.0,0.0,0.0,0.0,36.0
26.23,0.0,0.0,0.0,0.0,0.0,0.0,0.0,46.0
26.21,0.0,0.0,0.0,0.0,0.0,0.0,0.0,54.0
26.23,0.0,0.0,0.0,0.0,0.0,0.0,0.0,64.0
26.23,0.0,0.0,0.0,0.0,0.0,0.0,1369.0,74.0
26.27,0.0,292.0,0.0,0.0,0.0,0.0,2368.0,84.0
26.23,0.0,382.0,0.0,0.0,0.0,0.0,2422.0,93.0
26.21,0.0,449.0,0.0,0.0,0.0,0.0,2547.0,100.0
26.29,0.0,496.0,0.0,0.0,0.0,0.0,2565.0,100.0
26.23,0.0,502.0,0.0,0.0,0.0,0.0,2566.0,100.0
26.27,0.0,56.0,0.0,0.0,0.0,0.0,2271.0,100.0
26.29,0.0,0.0,0.0,0.0,0.0,0.0,2241.0,100.0
26.29,0.0,0.0,0.0,0.0,0.0,0.0,2133.0,100.0
26.29,0.0,0.0,0.0,0.0,77.0,0.0,2002.0,100.0
26.37,0.0,0.0,0.0,0.0,337.0,0.0,1611.0,100.0
26.37,0.0,0.0,0.0,0.0,278.0,0.0,1560.0,100.0
26.35,0.0,0.0,0.0,0.0,173.0,0.0,1554.0,100.0
26.43,0.0,0.0,0.0,0.0,159.0,0.0,1574.0,100.0
26.43,0.0,0.0,0.0,0.0,64.0,0.0,1701.0,100.0
26.49,0.0,0.0,0.0,0.0,36.0,0.0,1734.0,100.0
26.47,0.0,0.0,0.0,0.0,32.0,0.0,1736.0,100.0
26.43,0.0,0.0,0.0,0.0,48.0,0.0,1756.0,100.0
26.43,0.0,0.0,0.0,0.0,0.0,0.0,1761.0,100.0
26.43,0.0,0.0,0.0,0.0,0.0,0.0,1750.0,100.0
26.47,0.0,0.0,0.0,0.0,0.0,0.0,1752.0,100.0
26.43,0.0,0.0,0.0,0.0,0.0,0.0,1761.0,100.0
26.43,0.0,0.0,0.0,0.0,0.0,0.0,1750.0,100.0
26.47,0.0,0.0,0.0,0.0,0.0,0.0,1749.0,100.0
26.43,0.0,0.0,0.0,0.0,0.0,0.0,1753.0,100.0
26.47,0.0,0.0,0.0,0.0,0.0,0.0,1749.0,100.0
26.37,0.0,0.0,0.0,0.0,0.0,0.0,1753.0,100.0
26.47,0.0,0.0,0.0,0.0,0.0,0.0,1754.0,100.0
26.37,0.0,0.0,0.0,0.0,0.0,0.0,1749.0,100.0
26.37,0.0,0.0,0.0,0.0,0.0,0.0,1754.0,100.0
26.43,0.0,0.0,0.0,0.0,0.0,0.0,1748.0,100.0
26.47,0.0,0.0,0.0,0.0,0.0,0.0,1825.0,100.0
26.47,0.0,0.0,0.0,0.0,0.0,0.0,1848.0,100.0
26.55,0.0,0.0,0.0,0.0,0.0,0.0,1915.0,100.0
26.55,0.0,0.0,0.0,0.0,0.0,0.0,1919.0,100.0
26.53,0.0,0.0,0.0,0.0,0.0,0.0,1879.0,100.0
26.49,0.0,0.0,0.0,0.0,0.0,0.0,1899.0,100.0
26.49,0.0,0.0,0.0,0.0,0.0,0.0,1944.0,100.0
26.59,0.0,0.0,0.0,0.0,0.0,0.0,1938.0,100.0
26.53,0.0,0.0,0.0,0.0,0.0,0.0,1928.0,100.0
26.49,0.0,0.0,0.0,0.0,0.0,0.0,1800.0,100.0
26.37,0.0,0.0,0.0,0.0,0.0,0.0,1303.0,100.0
26.49,0.0,0.0,0.0,0.0,0.0,0.0,1268.0,100.0
26.49,0.0,0.0,0.0,0.0,126.0,0.0,1281.0,100.0
26.41,0.0,0.0,0.0,0.0,309.0,0.0,1166.0,100.0
26.37,0.0,0.0,0.0,0.0,426.0,0.0,1175.0,100.0
26.41,0.0,0.0,0.0,0.0,487.0,0.0,1135.0,100.0
26.47,0.0,0.0,0.0,0.0,486.0,0.0,1197.0,100.0
26.55,0.0,0.0,0.0,0.0,597.0,0.0,1203.0,100.0
26.49,0.0,0.0,0.0,0.0,698.0,0.0,1105.0,100.0
26.53,0.0,0.0,0.0,0.0,747.0,0.0,1171.0,100.0
26.49,0.0,0.0,0.0,0.0,747.0,0.0,1210.0,100.0
26.49,0.0,0.0,0.0,0.0,755.0,0.0,1211.0,100.0
26.61,0.0,0.0,0.0,0.0,756.0,0.0,1221.0,100.0
26.59,0.0,0.0,0.0,0.0,756.0,0.0,1220.0,100.0
26.55,0.0,0.0,0.0,0.0,755.0,0.0,1237.0,100.0
26.55,0.0,0.0,0.0,0.0,764.0,0.0,1234.0,100.0
26.59,0.0,0.0,0.0,0.0,702.0,0.0,1196.0,100.0
26.59,0.0,0.0,0.0,0.0,667.0,32.0,1372.0,100.0
26.53,0.0,0.0,0.0,0.0,643.0,0.0,1361.0,100.0
26.53,0.0,0.0,0.0,0.0,595.0,0.0,1439.0,100.0
26.37,0.0,0.0,0.0,0.0,494.0,0.0,1440.0,100.0
26.47,0.0,0.0,0.0,0.0,477.0,0.0,1291.0,100.0
26.47,0.0,0.0,0.0,0.0,222.0,0.0,1679.0,100.0
26.53,0.0,0.0,0.0,0.0,117.0,0.0,1822.0,100.0
26.37,0.0,0.0,0.0,0.0,0.0,0.0,1928.0,100.0
26.37,0.0,0.0,0.0,0.0,0.0,0.0,2081.0,100.0
26.47,0.0,0.0,0.0,0.0,0.0,0.0,2171.0,100.0
26.49,0.0,0.0,0.0,0.0,0.0,0.0,2149.0,100.0
26.53,0.0,0.0,0.0,0.0,0.0,0.0,2083.0,100.0
26.49,0.0,0.0,0.0,0.0,0.0,0.0,2119.0,100.0
26.53,0.0,0.0,0.0,0.0,0.0,0.0,2133.0,100.0
26.55,0.0,0.0,0.0,0.0,0.0,0.0,2145.0,100.0
26.53,0.0,0.0,0.0,0.0,0.0,0.0,2144.0,100.0
26.55,0.0,0.0,0.0,0.0,0.0,0.0,2141.0,100.0
26.55,0.0,0.0,0.0,0.0,0.0,0.0,2136.0,100.0
26.55,0.0,0.0,0.0,0.0,0.0,0.0,2139.0,100.0
26.53,0.0,0.0,0.0,0.0,0.0,0.0,2141.0,100.0
26.61,0.0,0.0,0.0,0.0,0.0,0.0,2137.0,100.0
26.59,0.0,0.0,0.0,0.0,0.0,0.0,2140.0,100.0
26.59,0.0,0.0,0.0,0.0,0.0,0.0,2140.0,100.0
26.65,0.0,0.0,0.0,0.0,0.0,0.0,2141.0,100.0
26.61,0.0,0.0,0.0,0.0,0.0,0.0,2144.0,100.0
26.65,0.0,0.0,0.0,0.0,0.0,0.0,2142.0,100.0
26.59,0.0,0.0,0.0,0.0,0.0,0.0,2151.0,100.0
26.61,0.0,0.0,0.0,0.0,0.0,0.0,2155.0,100.0
26.61,0.0,0.0,0.0,0.0,0.0,0.0,2154.0,100.0
26.65,0.0,0.0,0.0,0.0,0.0,0.0,2132.0,100.0
26.65,0.0,0.0,0.0,0.0,0.0,0.0,2159.0,100.0
26.61,0.0,0.0,0.0,0.0,0.0,0.0,2150.0,100.0
26.65,0.0,0.0,0.0,0.0,0.0,0.0,2141.0,100.0
26.59,0.0,0.0,0.0,0.0,0.0,0.0,2148.0,100.0
26.61,0.0,0.0,0.0,0.0,0.0,0.0,2148.0,100.0
26.61,0.0,0.0,0.0,0.0,0.0,0.0,2146.0,100.0
26.67,0.0,0.0,0.0,0.0,0.0,0.0,2158.0,100.0
26.61,0.0,0.0,0.0,0.0,0.0,0.0,2154.0,100.0
26.65,0.0,0.0,0.0,0.0,0.0,0.0,2154.0,100.0
26.65,0.0,0.0,0.0,0.0,0.0,0.0,2151.0,100.0
26.67,0.0,0.0,0.0,0.0,0.0,0.0,2138.0,100.0
26.67,0.0,0.0,0.0,0.0,0.0,0.0,2150.0,100.0
26.59,0.0,0.0,0.0,0.0,0.0,0.0,2153.0,100.0
26.61,0.0,0.0,0.0,0.0,0.0,0.0,2155.0,100.0
26.65,0.0,0.0,0.0,0.0,0.0,0.0,2152.0,100.0
26.67,0.0,0.0,0.0,0.0,0.0,0.0,2158.0,100.0
26.65,0.0,0.0,0.0,0.0,0.0,0.0,2150.0,100.0
26.67,0.0,0.0,0.0,0.0,0.0,0.0,2152.0,100.0
26.59,0.0,0.0,0.0,0.0,0.0,0.0,2157.0,100.0
26.61,0.0,0.0,0.0,0.0,0.0,0.0,2154.0,100.0
26.61,0.0,0.0,0.0,0.0,0.0,0.0,2145.0,100.0
26.67,0.0,0.0,0.0,0.0,0.0,0.0,2127.0,100.0
26.59,0.0,0.0,0.0,0.0,0.0,0.0,2126.0,100.0
26.65,0.0,0.0,0.0,0.0,0.0,0.0,2141.0,100.0
26.65,0.0,0.0,0.0,0.0,0.0,0.0,2134.0,100.0
26.67,0.0,0.0,0.0,0.0,0.0,0.0,2141.0,100.0
26.65,0.0,0.0,0.0,0.0,0.0,0.0,2138.0,100.0
26.65,0.0,0.0,0.0,0.0,0.0,0.0,2137.0,100.0
26.67,0.0,0.0,0.0,0.0,0.0,0.0,2141.0,100.0
26.67,0.0,0.0,0.0,0.0,0.0,0.0,2137.0,100.0
26.71,0.0,0.0,0.0,0.0,0.0,0.0,2136.0,100.0
26.65,0.0,0.0,0.0,0.0,0.0,0.0,2140.0,100.0
26.61,0.0,0.0,0.0,0.0,0.0,0.0,2140.0,100.0
26.59,0.0,0.0,0.0,0.0,0.0,0.0,61.0,15.0
26.59,0.0,0.0,0.0,0.0,0.0,0.0,0.0,15.0
26.53,0.0,0.0,0.0,0.0,0.0,0.0,0.0,15.0
26.61,0.0,0.0,0.0,0.0,0.0,0.0,0.0,15.0
26.71,0.0,0.0,0.0,0.0,0.0,0.0,0.0,15.0
26.55,0.0,0.0,0.0,0.0,0.0,0.0,0.0,15.0
26.55,0.0,0.0,0.0,0.0,0.0,0.0,0.0,15.0
26.41,0.0,0.0,0.0,0.0,0.0,0.0,0.0,15.0
26.53,0.0,0.0,0.0,0.0,0.0,0.0,0.0,15.0
27.29,0.0,0.0,0.0,0.0,0.0,0.0,0.0,15.0
27.47,0.0,0.0,0.0,0.0,0.0,0.0,0.0,15.0
27.35,0.0,0.0,0.0,0.0,0.0,0.0,0.0,15.0
27.35,0.0,0.0,0.0,0.0,0.0,0.0,0.0,15.0
26.93,0.0,0.0,0.0,0.0,0.0,0.0,0.0,15.0
26.47,0.0,0.0,0.0,0.0,0.0,0.0,0.0,15.0
26.43,0.0,0.0,0.0,0.0,0.0,0.0,0.0,15.0
26.37,0.0,0.0,0.0,0.0,0.0,0.0,0.0,15.0
26.47,0.0,0.0,0.0,0.0,0.0,0.0,0.0,15.0
26.47,0.0,0.0,0.0,0.0,0.0,0.0,0.0,15.0
26.59,0.0,0.0,0.0,0.0,0.0,0.0,0.0,15.0
26.47,0.0,0.0,0.0,0.0,0.0,0.0,0.0,15.0
26.43,0.0,0.0,0.0,0.0,0.0,0.0,0.0,15.0
26.49,0.0,0.0,0.0,0.0,0.0,0.0,0.0,15.0
26.59,0.0,0.0,0.0,0.0,0.0,0.0,0.0,15.0
26.49,0.0,0.0,0.0,0.0,0.0,0.0,0.0,15.0
26.43,0.0,0.0,0.0,0.0,0.0,0.0,0.0,15.0
26.37,0.0,0.0,0.0,0.0,0.0,0.0,0.0,15.0
26.43,0.0,0.0,0.0,0.0,0.0,0.0,0.0,15.0
26.43,0.0,0.0,0.0,0.0,0.0,0.0,0.0,15.0
26.43,0.0,0.0,0.0,0.0,0.0,0.0,0.0,15.0
26.43,0.0,0.0,0.0,0.0,0.0,0.0,0.0,15.0
26.43,0.0,0.0,0.0,0.0,0.0,0.0,0.0,15.0
26.35,0.0,0.0,0.0,0.0,0.0,0.0,0.0,15.0
26.47,0.0,0.0,0.0,0.0,0.0,0.0,0.0,15.0
26.47,0.0,0.0,0.0,0.0,0.0,0.0,0.0,15.0
26.47,0.0,0.0,0.0,0.0,0.0,0.0,0.0,15.0
26.55,0.0,0.0,0.0,0.0,0.0,0.0,0.0,15.0
26.67,0.0,0.0,0.0,0.0,0.0,0.0,0.0,15.0
26.67,0.0,0.0,0.0,0.0,0.0,0.0,0.0,15.0
27.29,0.0,0.0,0.0,0.0,0.0,0.0,0.0,15.0
30.17,0.0,0.0,0.0,0.0,0.0,0.0,0.0,15.0
30.71,0.0,0.0,0.0,0.0,0.0,0.0,0.0,15.0
29.79,0.0,0.0,0.0,0.0,0.0,0.0,0.0,15.0
27.75,0.0,0.0,0.0,0.0,0.0,0.0,0.0,15.0
27.75,0.0,0.0,0.0,0.0,0.0,0.0,0.0,15.0
27.85,0.0,0.0,0.0,0.0,0.0,0.0,0.0,15.0
27.87,0.0,0.0,0.0,0.0,0.0,0.0,0.0,15.0
27.91,0.0,0.0,0.0,0.0,0.0,0.0,0.0,15.0
27.87,0.0,0.0,0.0,0.0,0.0,0.0,0.0,15.0
27.95,0.0,0.0,0.0,0.0,0.0,0.0,0.0,15.0
27.95,0.0,0.0,0.0,0.0,0.0,0.0,0.0,15.0
27.95,0.0,0.0,0.0,0.0,0.0,0.0,0.0,15.0
27.93,0.0,0.0,0.0,0.0,0.0,0.0,0.0,15.0
27.93,0.0,0.0,0.0,0.0,0.0,0.0,0.0,15.0
27.93,0.0,0.0,0.0,0.0,0.0,0.0,0.0,15.0
27.87,0.0,0.0,0.0,0.0,0.0,0.0,0.0,15.0
27.99,0.0,0.0,0.0,0.0,0.0,0.0,0.0,15.0
27.95,0.0,0.0,0.0,0.0,0.0,0.0,0.0,15.0
27.93,0.0,0.0,0.0,0.0,0.0,0.0,0.0,15.0
27.85,0.0,0.0,0.0,0.0,0.0,0.0,0.0,15.0
27.85,0.0,0.0,0.0,0.0,0.0,0.0,0.0,15.0
27.93,0.0,0.0,0.0,0.0,0.0,0.0,0.0,15.0
27.95,0.0,0.0,0.0,0.0,0.0,0.0,0.0,15.0
27.99,0.0,0.0,0.0,0.0,0.0,0.0,0.0,15.0
27.95,0.0,0.0,0.0,0.0,0.0,0.0,0.0,15.0
27.95,0.0,0.0,0.0,0.0,0.0,0.0,0.0,15.0
27.95,0.0,0.0,0.0,0.0,0.0,0.0,0.0,15.0
27.93,0.0,0.0,0.0,0.0,0.0,0.0,0.0,15.0
27.95,0.0,0.0,0.0,0.0,0.0,0.0,0.0,15.0
27.95,0.0,0.0,0.0,0.0,0.0,0.0,0.0,15.0
27.95,0.0,0.0,0.0,0.0,0.0,0.0,0.0,15.0
27.95,0.0,0.0,0.0,0.0,0.0,0.0,0.0,15.0
27.93,0.0,0.0,0.0,0.0,0.0,0.0,0.0,15.0
27.91,0.0,0.0,0.0,0.0,0.0,0.0,0.0,15.0
27.95,0.0,0.0,0.0,0.0,0.0,0.0,0.0,15.0
27.95,0.0,0.0,0.0,0.0,0.0,0.0,0.0,15.0
27.99,0.0,0.0,0.0,0.0,0.0,0.0,0.0,15.0
27.95,0.0,0.0,0.0,0.0,0.0,0.0,0.0,15.0
27.91,0.0,0.0,0.0,0.0,0.0,0.0,1.0,15.0
27.99,0.0,0.0,0.0,0.0,0.0,0.0,0.0,15.0
27.91,0.0,0.0,0.0,0.0,0.0,0.0,0.0,15.0
27.91,0.0,0.0,0.0,0.0,0.0,0.0,0.0,15.0
27.91,0.0,0.0,0.0,0.0,0.0,0.0,0.0,15.0
27.85,0.0,0.0,0.0,0.0,0.0,0.0,0.0,15.0
27.85,0.0,0.0,0.0,0.0,0.0,0.0,0.0,15.0
27.69,0.0,0.0,0.0,0.0,0.0,0.0,0.0,15.0
27.67,0.0,0.0,0.0,0.0,0.0,0.0,0.0,15.0
27.73,0.0,0.0,0.0,0.0,0.0,0.0,0.0,15.0
27.79,0.0,0.0,0.0,0.0,0.0,0.0,0.0,15.0
27.91,0.0,0.0,0.0,0.0,0.0,0.0,0.0,15.0
27.87,0.0,0.0,0.0,0.0,0.0,0.0,0.0,15.0
27.95,0.0,0.0,0.0,0.0,0.0,0.0,0.0,15.0
27.93,0.0,0.0,0.0,0.0,0.0,0.0,0.0,15.0
27.99,0.0,0.0,0.0,0.0,0.0,0.0,0.0,15.0
27.95,0.0,0.0,0.0,0.0,0.0,0.0,0.0,15.0
27.93,0.0,0.0,0.0,0.0,0.0,0.0,0.0,15.0
28.01,0.0,0.0,0.0,0.0,0.0,0.0,0.0,15.0
28.11,0.0,0.0,0.0,0.0,0.0,0.0,0.0,15.0
27.95,0.0,0.0,0.0,0.0,0.0,0.0,0.0,15.0
27.99,0.0,0.0,0.0,0.0,0.0,0.0,0.0,15.0
27.99,0.0,0.0,0.0,0.0,0.0,0.0,0.0,15.0
27.93,0.0,0.0,0.0,0.0,0.0,0.0,0.0,15.0
27.95,0.0,0.0,0.0,0.0,0.0,0.0,0.0,15.0
27.95,0.0,0.0,0.0,0.0,0.0,0.0,0.0,15.0
27.91,0.0,0.0,0.0,0.0,0.0,0.0,0.0,15.0
27.91,0.0,0.0,0.0,0.0,0.0,0.0,0.0,15.0
27.87,0.0,0.0,0.0,0.0,0.0,0.0,0.0,15.0
27.81,0.0,0.0,0.0,0.0,0.0,0.0,0.0,15.0
27.69,0.0,0.0,0.0,0.0,0.0,0.0,0.0,15.0
27.61,0.0,0.0,0.0,0.0,0.0,0.0,0.0,15.0
27.69,0.0,0.0,0.0,0.0,0.0,0.0,0.0,15.0
27.63,0.0,0.0,0.0,0.0,0.0,0.0,0.0,15.0
27.61,0.0,0.0,0.0,0.0,0.0,0.0,0.0,15.0
27.53,0.0,0.0,0.0,0.0,0.0,0.0,0.0,15.0
27.61,0.0,0.0,0.0,0.0,0.0,0.0,0.0,15.0
27.61,0.0,0.0,0.0,0.0,0.0,0.0,0.0,15.0
27.59,0.0,0.0,0.0,0.0,0.0,0.0,0.0,15.0
27.75,0.0,0.0,0.0,0.0,0.0,0.0,0.0,15.0
27.79,0.0,0.0,0.0,0.0,0.0,0.0,0.0,15.0
27.79,0.0,0.0,0.0,0.0,0.0,0.0,0.0,15.0
27.69,0.0,0.0,0.0,0.0,0.0,0.0,0.0,15.0
27.63,0.0,0.0,0.0,0.0,0.0,0.0,0.0,15.0
27.69,0.0,0.0,0.0,0.0,0.0,0.0,0.0,15.0
27.67,0.0,0.0,0.0,0.0,0.0,0.0,0.0,15.0
27.63,0.0,0.0,0.0,0.0,0.0,0.0,0.0,15.0
27.63,0.0,0.0,0.0,0.0,0.0,0.0,0.0,15.0
27.63,0.0,0.0,0.0,0.0,0.0,0.0,0.0,15.0
27.67,0.0,0.0,0.0,0.0,0.0,0.0,0.0,15.0
27.67,0.0,0.0,0.0,0.0,0.0,0.0,0.0,15.0
27.69,0.0,0.0,0.0,0.0,0.0,0.0,0.0,15.0
27.63,0.0,0.0,0.0,0.0,0.0,0.0,0.0,15.0
27.63,0.0,0.0,0.0,0.0,0.0,0.0,0.0,15.0
27.67,0.0,0.0,0.0,0.0,0.0,0.0,0.0,15.0
27.69,0.0,0.0,0.0,0.0,0.0,0.0,0.0,15.0
27.79,0.0,0.0,0.0,0.0,0.0,0.0,0.0,15.0
27.81,0.0,0.0,0.0,0.0,0.0,0.0,0.0,15.0
27.81,0.0,0.0,0.0,0.0,0.0,0.0,0.0,15.0
27.81,0.0,0.0,0.0,0.0,0.0,0.0,0.0,15.0
27.81,0.0,0.0,0.0,0.0,0.0,0.0,0.0,15.0
27.75,0.0,0.0,0.0,0.0,0.0,0.0,0.0,15.0
27.75,0.0,0.0,0.0,0.0,0.0,0.0,0.0,15.0
27.85,0.0,0.0,0.0,0.0,0.0,0.0,0.0,15.0
27.95,0.0,0.0,0.0,0.0,0.0,0.0,0.0,15.0
29.15,0.0,0.0,0.0,0.0,0.0,0.0,0.0,15.0
30.33,0.0,0.0,0.0,0.0,0.0,0.0,0.0,15.0
30.71,0.0,0.0,0.0,0.0,0.0,0.0,0.0,15.0
30.71,0.0,0.0,0.0,0.0,0.0,0.0,0.0,15.0
27.63,0.0,0.0,0.0,0.0,0.0,0.0,0.0,15.0
26.93,0.0,0.0,0.0,0.0,0.0,0.0,0.0,15.0
26.93,0.0,0.0,0.0,0.0,0.0,0.0,0.0,15.0
27.41,0.0,0.0,0.0,0.0,0.0,0.0,0.0,15.0
32.59,0.0,0.0,0.0,0.0,0.0,0.0,0.0,15.0
33.43,0.0,0.0,0.0,0.0,0.0,0.0,0.0,15.0
37.49,0.0,0.0,0.0,0.0,0.0,0.0,0.0,15.0
40.27,0.0,0.0,0.0,0.0,0.0,0.0,0.0,15.0
41.95,0.0,0.0,0.0,0.0,0.0,0.0,0.0,15.0
41.83,0.0,0.0,0.0,0.0,0.0,0.0,0.0,15.0
41.47,0.0,0.0,0.0,0.0,0.0,0.0,0.0,15.0
42.23,0.0,0.0,0.0,0.0,0.0,0.0,0.0,15.0
42.53,0.0,0.0,0.0,0.0,0.0,0.0,0.0,15.0
42.57,0.0,0.0,0.0,0.0,0.0,0.0,0.0,16.0
42.29,0.0,0.0,0.0,0.0,0.0,0.0,0.0,26.0
42.49,0.0,0.0,0.0,0.0,0.0,0.0,0.0,35.0
42.35,0.0,0.0,0.0,0.0,0.0,0.0,0.0,45.0
42.51,0.0,0.0,0.0,0.0,0.0,0.0,0.0,56.0
42.57,0.0,0.0,0.0,0.0,0.0,0.0,198.0,67.0
42.43,0.0,0.0,0.0,0.0,0.0,0.0,1053.0,77.0
42.31,0.0,0.0,0.0,0.0,0.0,0.0,1199.0,86.0
42.05,0.0,0.0,0.0,0.0,0.0,0.0,1214.0,96.0
41.97,0.0,0.0,0.0,0.0,0.0,0.0,1217.0,100.0
41.93,0.0,0.0,0.0,0.0,0.0,0.0,1230.0,100.0
41.93,0.0,0.0,0.0,0.0,0.0,0.0,1231.0,100.0
41.93,0.0,0.0,0.0,0.0,0.0,0.0,1254.0,100.0
41.95,0.0,0.0,0.0,0.0,0.0,0.0,1264.0,100.0
42.01,0.0,0.0,0.0,0.0,0.0,0.0,1286.0,100.0
42.03,100.0,0.0,0.0,0.0,0.0,0.0,1301.0,100.0
42.03,0.0,0.0,0.0,0.0,0.0,0.0,1324.0,100.0
42.03,0.0,0.0,0.0,0.0,0.0,0.0,1314.0,100.0
42.11,0.0,0.0,0.0,0.0,0.0,0.0,1334.0,100.0
42.05,0.0,0.0,0.0,0.0,0.0,0.0,1354.0,100.0
41.93,0.0,0.0,0.0,0.0,0.0,0.0,1358.0,100.0
41.97,0.0,0.0,0.0,0.0,0.0,0.0,1438.0,100.0
41.97,0.0,0.0,0.0,0.0,0.0,0.0,1451.0,100.0
41.95,0.0,0.0,0.0,0.0,0.0,0.0,1436.0,100.0
41.81,0.0,0.0,0.0,0.0,0.0,0.0,1451.0,100.0
41.63,0.0,0.0,0.0,0.0,0.0,0.0,1451.0,100.0
41.65,0.0,0.0,0.0,0.0,0.0,0.0,1454.0,100.0
41.73,0.0,0.0,0.0,0.0,0.0,0.0,1459.0,100.0
41.63,0.0,0.0,0.0,0.0,0.0,0.0,1463.0,100.0
41.55,0.0,0.0,0.0,0.0,0.0,0.0,1471.0,100.0
41.47,0.0,0.0,0.0,0.0,0.0,0.0,1468.0,100.0
41.39,0.0,0.0,0.0,0.0,0.0,0.0,1471.0,100.0
41.35,0.0,0.0,0.0,0.0,0.0,0.0,1491.0,100.0
41.29,0.0,0.0,0.0,0.0,0.0,0.0,1487.0,100.0
41.29,0.0,0.0,0.0,0.0,0.0,0.0,1483.0,100.0
41.21,0.0,0.0,0.0,0.0,0.0,0.0,1460.0,100.0
41.21,0.0,0.0,0.0,0.0,0.0,0.0,1465.0,100.0
41.43,0.0,0.0,0.0,0.0,0.0,0.0,1456.0,100.0
41.49,0.0,0.0,0.0,0.0,0.0,0.0,1415.0,100.0
41.49,0.0,45.0,0.0,0.0,0.0,0.0,1413.0,100.0
41.47,0.0,0.0,0.0,0.0,0.0,0.0,1410.0,100.0
41.35,0.0,0.0,0.0,0.0,0.0,0.0,1466.0,100.0
41.21,0.0,0.0,0.0,0.0,0.0,0.0,1479.0,100.0
41.25,0.0,0.0,0.0,0.0,0.0,0.0,1445.0,100.0
41.35,0.0,0.0,21.0,0.0,0.0,0.0,1405.0,100.0
41.25,0.0,0.0,0.0,0.0,0.0,0.0,1396.0,100.0
41.31,0.0,0.0,0.0,0.0,0.0,0.0,1408.0,100.0
41.21,0.0,0.0,21.0,0.0,0.0,0.0,1421.0,100.0
41.17,0.0,0.0,37.0,0.0,0.0,0.0,1460.0,100.0
41.19,0.0,0.0,69.0,0.0,0.0,0.0,1419.0,100.0
41.17,0.0,0.0,82.0,0.0,0.0,0.0,1397.0,100.0
41.25,0.0,0.0,144.0,0.0,0.0,0.0,1358.0,100.0
41.35,0.0,0.0,194.0,0.0,0.0,0.0,1383.0,100.0
41.37,0.0,0.0,206.0,0.0,0.0,0.0,1398.0,100.0
41.43,0.0,0.0,253.0,0.0,0.0,0.0,1408.0,100.0
41.45,0.0,0.0,235.0,0.0,0.0,0.0,1451.0,100.0
41.49,0.0,0.0,244.0,0.0,0.0,0.0,1432.0,100.0
41.49,0.0,0.0,150.0,0.0,0.0,0.0,1519.0,100.0
41.43,0.0,0.0,172.0,0.0,0.0,0.0,1536.0,100.0
41.39,0.0,0.0,175.0,0.0,0.0,0.0,1580.0,100.0
41.45,0.0,13.0,185.0,0.0,0.0,0.0,1540.0,100.0
41.57,0.0,0.0,144.0,0.0,0.0,0.0,1532.0,100.0
41.63,0.0,0.0,133.0,0.0,0.0,0.0,1536.0,100.0
41.63,0.0,0.0,130.0,0.0,0.0,0.0,1597.0,100.0
41.67,0.0,0.0,68.0,0.0,0.0,0.0,1614.0,100.0
41.63,0.0,0.0,127.0,0.0,0.0,0.0,1622.0,100.0
41.53,0.0,0.0,121.0,0.0,0.0,0.0,1624.0,100.0
41.45,0.0,0.0,124.0,0.0,0.0,0.0,1620.0,100.0
41.43,0.0,0.0,117.0,0.0,0.0,0.0,1621.0,100.0
41.29,0.0,0.0,123.0,0.0,0.0,0.0,1626.0,100.0
41.27,0.0,0.0,112.0,0.0,0.0,0.0,1622.0,100.0
41.29,0.0,0.0,102.0,0.0,0.0,0.0,1619.0,100.0
41.21,0.0,0.0,99.0,0.0,0.0,0.0,1627.0,100.0
41.19,0.0,0.0,110.0,0.0,0.0,0.0,1617.0,100.0
41.25,0.0,0.0,103.0,0.0,0.0,0.0,1632.0,100.0
41.15,0.0,0.0,94.0,0.0,0.0,0.0,1627.0,100.0
41.21,0.0,0.0,96.0,0.0,0.0,0.0,1628.0,100.0
41.21,0.0,0.0,93.0,0.0,0.0,0.0,1634.0,100.0
41.21,0.0,0.0,98.0,0.0,0.0,0.0,1620.0,100.0
41.17,0.0,0.0,90.0,0.0,0.0,0.0,1628.0,100.0
41.17,0.0,0.0,64.0,0.0,0.0,0.0,1636.0,100.0
41.09,0.0,0.0,97.0,0.0,0.0,0.0,1619.0,100.0
41.09,0.0,0.0,112.0,0.0,0.0,0.0,1636.0,100.0
41.01,0.0,0.0,112.0,0.0,0.0,0.0,1630.0,100.0
41.01,0.0,0.0,96.0,0.0,0.0,0.0,1633.0,100.0
41.11,0.0,0.0,48.0,0.0,0.0,0.0,1588.0,100.0
41.17,0.0,0.0,103.0,0.0,0.0,0.0,1624.0,100.0
41.17,0.0,0.0,98.0,0.0,0.0,0.0,1620.0,100.0
41.29,0.0,0.0,110.0,0.0,0.0,0.0,1620.0,100.0
41.43,0.0,0.0,113.0,0.0,0.0,0.0,1613.0,100.0
41.45,0.0,0.0,94.0,0.0,0.0,0.0,1627.0,100.0
41.47,0.0,0.0,121.0,0.0,0.0,0.0,1620.0,100.0
41.37,0.0,0.0,117.0,0.0,0.0,0.0,1618.0,100.0
41.27,0.0,0.0,130.0,0.0,0.0,0.0,1615.0,100.0
41.21,0.0,0.0,131.0,0.0,0.0,0.0,1616.0,100.0
41.19,0.0,0.0,124.0,0.0,0.0,0.0,1616.0,100.0
41.11,0.0,0.0,131.0,0.0,0.0,0.0,1623.0,100.0
41.01,0.0,0.0,129.0,0.0,0.0,0.0,1623.0,100.0
41.01,0.0,0.0,128.0,0.0,0.0,0.0,1626.0,100.0
40.99,0.0,0.0,123.0,0.0,0.0,0.0,1616.0,100.0
41.03,0.0,0.0,117.0,0.0,0.0,0.0,1622.0,100.0
41.17,0.0,0.0,115.0,0.0,0.0,0.0,1616.0,100.0
41.15,0.0,0.0,128.0,0.0,0.0,0.0,1621.0,100.0
41.01,0.0,0.0,128.0,0.0,0.0,0.0,1629.0,100.0
41.03,0.0,0.0,128.0,0.0,0.0,0.0,1626.0,100.0
41.09,0.0,0.0,121.0,0.0,0.0,0.0,1619.0,100.0
41.11,0.0,0.0,128.0,0.0,0.0,0.0,1623.0,100.0
41.07,0.0,0.0,112.0,0.0,0.0,0.0,1620.0,100.0
41.07,0.0,0.0,115.0,0.0,0.0,0.0,1617.0,100.0
41.01,0.0,0.0,113.0,0.0,0.0,0.0,1619.0,100.0
41.01,0.0,0.0,118.0,0.0,0.0,0.0,1622.0,100.0
40.97,0.0,0.0,112.0,0.0,0.0,0.0,1618.0,100.0
40.99,0.0,0.0,112.0,0.0,0.0,0.0,1617.0,100.0
40.99,0.0,0.0,122.0,0.0,0.0,0.0,1612.0,100.0
40.85,0.0,0.0,110.0,0.0,0.0,0.0,1611.0,100.0
40.83,0.0,0.0,109.0,0.0,0.0,0.0,1610.0,100.0
40.91,0.0,0.0,121.0,0.0,0.0,0.0,1620.0,100.0
40.85,0.0,0.0,171.0,0.0,0.0,0.0,1622.0,100.0
40.83,0.0,0.0,112.0,0.0,0.0,0.0,1616.0,100.0
40.85,0.0,0.0,112.0,0.0,0.0,0.0,1620.0,100.0
40.81,0.0,0.0,112.0,0.0,0.0,0.0,1621.0,100.0
40.89,0.0,0.0,112.0,0.0,0.0,0.0,1613.0,100.0
40.91,0.0,0.0,109.0,0.0,0.0,0.0,1613.0,100.0
40.93,0.0,0.0,112.0,0.0,0.0,0.0,1611.0,100.0
40.89,0.0,0.0,103.0,0.0,0.0,0.0,1616.0,100.0
40.91,0.0,0.0,103.0,0.0,0.0,0.0,1608.0,100.0
40.91,0.0,0.0,113.0,0.0,0.0,0.0,1612.0,100.0
40.93,0.0,0.0,110.0,0.0,0.0,0.0,1616.0,100.0
40.99,0.0,0.0,107.0,0.0,0.0,0.0,1606.0,100.0
40.99,0.0,0.0,112.0,0.0,0.0,0.0,1619.0,100.0
40.97,0.0,0.0,108.0,0.0,0.0,0.0,1608.0,100.0
40.81,0.0,0.0,102.0,0.0,0.0,0.0,1612.0,100.0
40.93,0.0,0.0,108.0,0.0,0.0,0.0,1614.0,100.0
41.07,0.0,0.0,105.0,0.0,0.0,0.0,1616.0,100.0
41.11,0.0,0.0,109.0,0.0,0.0,0.0,1617.0,100.0
41.21,0.0,0.0,0.0,0.0,0.0,0.0,46.0,15.0
30.17,0.0,0.0,21.0,0.0,0.0,0.0,0.0,15.0
28.31,0.0,0.0,0.0,0.0,0.0,0.0,0.0,15.0
28.25,0.0,0.0,0.0,0.0,0.0,0.0,0.0,15.0
28.19,0.0,0.0,0.0,0.0,0.0,0.0,0.0,15.0
28.13,0.0,0.0,0.0,0.0,0.0,0.0,0.0,15.0
28.19,0.0,0.0,0.0,0.0,0.0,0.0,0.0,15.0
30.71,0.0,0.0,0.0,0.0,0.0,0.0,0.0,15.0
29.19,0.0,0.0,0.0,0.0,0.0,0.0,0.0,15.0
27.79,0.0,0.0,0.0,0.0,0.0,0.0,0.0,15.0
27.61,0.0,0.0,0.0,0.0,0.0,0.0,0.0,15.0
27.35,0.0,0.0,0.0,0.0,0.0,0.0,0.0,15.0
27.35,0.0,0.0,0.0,0.0,0.0,0.0,0.0,15.0
27.35,0.0,0.0,0.0,0.0,0.0,0.0,0.0,15.0
27.25,0.0,0.0,0.0,0.0,0.0,0.0,0.0,15.0
27.25,0.0,0.0,0.0,0.0,0.0,0.0,0.0,15.0
27.17,0.0,0.0,0.0,0.0,0.0,0.0,0.0,15.0
27.25,0.0,0.0,0.0,0.0,0.0,0.0,0.0,15.0
27.29,0.0,0.0,0.0,0.0,0.0,0.0,0.0,15.0
27.21,0.0,0.0,0.0,0.0,0.0,0.0,0.0,15.0
27.29,0.0,0.0,0.0,0.0,0.0,0.0,0.0,15.0
27.31,0.0,0.0,0.0,0.0,0.0,0.0,0.0,15.0
27.23,0.0,0.0,0.0,0.0,0.0,0.0,0.0,15.0
27.17,0.0,0.0,0.0,0.0,0.0,0.0,0.0,15.0
27.17,0.0,0.0,0.0,0.0,0.0,0.0,0.0,15.0
27.11,0.0,0.0,0.0,0.0,0.0,0.0,0.0,15.0
27.35,0.0,0.0,0.0,0.0,0.0,0.0,0.0,15.0
27.35,0.0,0.0,0.0,0.0,0.0,0.0,0.0,15.0
27.15,0.0,0.0,0.0,0.0,0.0,0.0,0.0,15.0
27.15,0.0,0.0,0.0,0.0,0.0,0.0,0.0,15.0
27.35,0.0,0.0,0.0,0.0,0.0,0.0,0.0,15.0
27.37,0.0,0.0,0.0,0.0,0.0,0.0,0.0,15.0
27.29,0.0,0.0,0.0,0.0,0.0,0.0,0.0,15.0
27.23,0.0,0.0,0.0,0.0,0.0,0.0,0.0,15.0
27.23,0.0,0.0,0.0,0.0,0.0,0.0,0.0,15.0
27.21,0.0,0.0,0.0,0.0,0.0,0.0,0.0,15.0
27.17,0.0,0.0,0.0,0.0,0.0,0.0,0.0,15.0
27.25,0.0,0.0,0.0,0.0,0.0,0.0,0.0,15.0
27.23,0.0,0.0,0.0,0.0,0.0,0.0,0.0,15.0
27.17,0.0,0.0,0.0,0.0,0.0,0.0,0.0,15.0
27.17,0.0,0.0,0.0,0.0,0.0,0.0,0.0,15.0
27.17,0.0,0.0,0.0,0.0,0.0,0.0,0.0,15.0
27.23,0.0,0.0,0.0,0.0,0.0,0.0,0.0,15.0
27.17,0.0,0.0,0.0,0.0,0.0,0.0,0.0,15.0
27.17,0.0,0.0,0.0,0.0,0.0,0.0,0.0,15.0
27.17,0.0,0.0,0.0,0.0,0.0,0.0,0.0,15.0
27.15,0.0,0.0,0.0,0.0,0.0,0.0,0.0,15.0
27.17,0.0,0.0,0.0,0.0,0.0,0.0,0.0,15.0
27.17,0.0,0.0,0.0,0.0,0.0,0.0,0.0,15.0
27.17,0.0,0.0,0.0,0.0,0.0,0.0,0.0,15.0
27.15,0.0,0.0,0.0,0.0,0.0,0.0,0.0,15.0
27.11,0.0,0.0,0.0,0.0,0.0,0.0,0.0,15.0
27.17,0.0,0.0,0.0,0.0,0.0,0.0,0.0,15.0
27.15,0.0,0.0,0.0,0.0,0.0,0.0,0.0,15.0
27.17,0.0,0.0,0.0,0.0,0.0,0.0,0.0,15.0
27.09,0.0,0.0,0.0,0.0,0.0,0.0,0.0,15.0
27.11,0.0,0.0,0.0,0.0,0.0,0.0,0.0,15.0
27.09,0.0,0.0,0.0,0.0,0.0,0.0,0.0,15.0
27.15,0.0,0.0,0.0,0.0,0.0,0.0,0.0,15.0
27.17,0.0,0.0,0.0,0.0,0.0,0.0,0.0,15.0
27.17,0.0,0.0,0.0,0.0,0.0,0.0,0.0,15.0
27.11,0.0,0.0,0.0,0.0,0.0,0.0,0.0,15.0
27.17,0.0,0.0,0.0,0.0,0.0,0.0,0.0,15.0
27.11,0.0,0.0,0.0,0.0,0.0,0.0,0.0,15.0
27.15,0.0,0.0,0.0,0.0,0.0,0.0,0.0,15.0
27.11,0.0,0.0,0.0,0.0,0.0,0.0,0.0,15.0
27.15,0.0,0.0,0.0,0.0,0.0,0.0,0.0,15.0
27.11,0.0,0.0,0.0,0.0,0.0,0.0,0.0,15.0
27.15,0.0,0.0,0.0,0.0,0.0,0.0,0.0,15.0
27.17,0.0,0.0,0.0,0.0,0.0,0.0,0.0,15.0
27.11,0.0,0.0,0.0,0.0,0.0,0.0,0.0,15.0
27.05,0.0,0.0,0.0,0.0,0.0,0.0,0.0,15.0
27.03,0.0,0.0,0.0,0.0,0.0,0.0,0.0,15.0
26.97,0.0,0.0,0.0,0.0,0.0,0.0,0.0,15.0
26.97,0.0,0.0,0.0,0.0,0.0,0.0,0.0,15.0
26.97,0.0,0.0,0.0,0.0,0.0,0.0,0.0,15.0
26.97,0.0,0.0,0.0,0.0,0.0,0.0,0.0,15.0
27.03,0.0,0.0,0.0,0.0,0.0,0.0,0.0,15.0
26.99,0.0,0.0,0.0,0.0,0.0,0.0,0.0,15.0
27.05,0.0,0.0,0.0,0.0,0.0,0.0,0.0,15.0
27.03,0.0,0.0,0.0,0.0,0.0,0.0,0.0,15.0
27.05,0.0,0.0,0.0,0.0,0.0,0.0,0.0,15.0
27.05,0.0,0.0,0.0,0.0,0.0,0.0,0.0,15.0
27.09,0.0,0.0,0.0,0.0,0.0,0.0,0.0,15.0
26.99,0.0,0.0,0.0,0.0,0.0,0.0,0.0,15.0
27.03,0.0,0.0,0.0,0.0,0.0,0.0,0.0,15.0
27.05,0.0,0.0,0.0,0.0,0.0,0.0,0.0,15.0
27.05,0.0,0.0,0.0,0.0,0.0,0.0,0.0,15.0
27.03,0.0,0.0,0.0,0.0,0.0,0.0,0.0,15.0
27.03,0.0,0.0,0.0,0.0,0.0,0.0,0.0,15.0
26.99,0.0,0.0,0.0,0.0,0.0,0.0,0.0,15.0
26.99,0.0,0.0,0.0,0.0,0.0,0.0,0.0,15.0
26.93,0.0,0.0,0.0,0.0,0.0,0.0,0.0,15.0
26.87,0.0,0.0,0.0,0.0,0.0,0.0,0.0,15.0
26.91,0.0,0.0,0.0,0.0,0.0,0.0,0.0,15.0
26.99,0.0,0.0,0.0,0.0,0.0,0.0,0.0,15.0
26.93,0.0,0.0,0.0,0.0,0.0,0.0,0.0,15.0
26.93,0.0,0.0,0.0,0.0,0.0,0.0,0.0,15.0
26.97,0.0,0.0,0.0,0.0,0.0,0.0,0.0,15.0
26.87,0.0,0.0,0.0,0.0,0.0,0.0,0.0,15.0
26.93,0.0,0.0,0.0,0.0,0.0,0.0,0.0,15.0
26.85,0.0,0.0,0.0,0.0,0.0,0.0,0.0,15.0
26.79,0.0,0.0,0.0,0.0,0.0,0.0,0.0,15.0
26.85,0.0,0.0,0.0,0.0,0.0,0.0,0.0,15.0
26.85,0.0,0.0,0.0,0.0,0.0,0.0,0.0,15.0
26.93,0.0,0.0,0.0,0.0,0.0,0.0,0.0,15.0
27.03,0.0,0.0,0.0,0.0,0.0,0.0,0.0,15.0
26.97,0.0,0.0,0.0,0.0,0.0,0.0,0.0,15.0
26.99,0.0,0.0,0.0,0.0,0.0,0.0,0.0,15.0
26.99,0.0,0.0,0.0,0.0,0.0,0.0,0.0,15.0
27.05,0.0,0.0,0.0,0.0,0.0,0.0,0.0,15.0
27.03,0.0,0.0,0.0,0.0,0.0,0.0,0.0,15.0
26.99,0.0,0.0,0.0,0.0,0.0,0.0,0.0,15.0
26.99,0.0,0.0,0.0,0.0,0.0,0.0,0.0,15.0
27.05,0.0,0.0,0.0,0.0,0.0,0.0,0.0,15.0
26.99,0.0,0.0,0.0,0.0,0.0,0.0,0.0,15.0
26.97,0.0,0.0,0.0,0.0,0.0,0.0,0.0,15.0
27.03,0.0,0.0,0.0,0.0,0.0,0.0,0.0,15.0
26.93,0.0,0.0,0.0,0.0,0.0,0.0,0.0,15.0
26.97,0.0,0.0,0.0,0.0,0.0,0.0,0.0,15.0
26.93,0.0,0.0,0.0,0.0,0.0,0.0,0.0,15.0
26.93,0.0,0.0,0.0,0.0,0.0,0.0,0.0,15.0
26.87,0.0,0.0,0.0,0.0,0.0,0.0,0.0,15.0
26.91,0.0,0.0,0.0,0.0,0.0,0.0,0.0,15.0
26.91,0.0,0.0,0.0,0.0,0.0,0.0,0.0,15.0
26.91,0.0,0.0,0.0,0.0,0.0,0.0,0.0,15.0
26.91,0.0,0.0,0.0,0.0,0.0,0.0,0.0,15.0
26.91,0.0,0.0,0.0,0.0,0.0,0.0,0.0,15.0
26.93,0.0,0.0,0.0,0.0,0.0,0.0,0.0,15.0
26.91,0.0,0.0,0.0,0.0,0.0,0.0,0.0,15.0
26.87,0.0,0.0,0.0,0.0,0.0,0.0,0.0,15.0
27.11,0.0,0.0,0.0,0.0,0.0,0.0,0.0,15.0
27.05,0.0,0.0,0.0,0.0,0.0,0.0,0.0,15.0
27.03,0.0,0.0,0.0,0.0,0.0,0.0,0.0,15.0
26.83,0.0,0.0,0.0,0.0,0.0,0.0,0.0,15.0
26.65,0.0,0.0,0.0,0.0,0.0,0.0,0.0,15.0
26.83,0.0,0.0,0.0,0.0,0.0,0.0,0.0,15.0
26.91,0.0,0.0,0.0,0.0,0.0,0.0,0.0,15.0
26.91,0.0,0.0,0.0,0.0,0.0,0.0,0.0,15.0
26.97,0.0,0.0,0.0,0.0,0.0,0.0,0.0,15.0
27.05,0.0,0.0,0.0,0.0,0.0,0.0,0.0,15.0
26.99,0.0,0.0,0.0,0.0,0.0,0.0,0.0,15.0
26.97,0.0,0.0,0.0,0.0,0.0,0.0,0.0,15.0
26.73,0.0,0.0,0.0,0.0,0.0,0.0,0.0,15.0
26.71,0.0,0.0,0.0,0.0,0.0,0.0,0.0,15.0
26.73,0.0,0.0,0.0,0.0,0.0,0.0,0.0,15.0
26.77,0.0,0.0,0.0,0.0,0.0,0.0,0.0,15.0
26.83,0.0,0.0,0.0,0.0,0.0,0.0,0.0,15.0
26.77,0.0,0.0,0.0,0.0,0.0,0.0,0.0,15.0
27.61,0.0,0.0,0.0,0.0,0.0,0.0,0.0,15.0
27.73,0.0,0.0,0.0,0.0,0.0,0.0,0.0,15.0
27.63,0.0,0.0,0.0,0.0,0.0,0.0,0.0,15.0
26.85,0.0,0.0,0.0,0.0,0.0,0.0,0.0,15.0
26.21,0.0,0.0,0.0,0.0,0.0,0.0,0.0,15.0
25.59,0.0,0.0,0.0,0.0,0.0,0.0,0.0,15.0
25.59,0.0,0.0,0.0,0.0,0.0,0.0,0.0,15.0
25.61,0.0,0.0,0.0,0.0,0.0,0.0,0.0,15.0
25.63,0.0,0.0,0.0,0.0,0.0,0.0,0.0,15.0
25.61,0.0,0.0,0.0,0.0,0.0,0.0,0.0,15.0
25.63,0.0,0.0,0.0,0.0,0.0,0.0,0.0,15.0
25.55,0.0,0.0,0.0,0.0,0.0,0.0,0.0,15.0
25.63,0.0,0.0,0.0,0.0,0.0,0.0,0.0,25.0
25.63,0.0,0.0,0.0,0.0,0.0,0.0,0.0,35.0
25.63,0.0,0.0,0.0,0.0,0.0,0.0,0.0,44.0
25.63,0.0,0.0,0.0,0.0,0.0,0.0,0.0,53.0
25.79,0.0,0.0,0.0,0.0,0.0,0.0,1530.0,63.0
25.69,0.0,0.0,0.0,0.0,89.0,0.0,1633.0,72.0
25.73,0.0,0.0,0.0,0.0,82.0,0.0,1611.0,83.0
25.69,0.0,0.0,0.0,0.0,43.0,0.0,1589.0,92.0
25.69,0.0,0.0,0.0,0.0,0.0,0.0,1554.0,100.0
25.69,0.0,0.0,0.0,0.0,0.0,0.0,1594.0,100.0
25.81,0.0,0.0,0.0,0.0,0.0,0.0,1559.0,100.0
25.81,0.0,0.0,0.0,0.0,0.0,0.0,1549.0,100.0
25.79,0.0,0.0,0.0,0.0,0.0,0.0,1541.0,100.0
25.81,0.0,0.0,0.0,0.0,0.0,0.0,1533.0,100.0
25.79,0.0,0.0,0.0,0.0,0.0,0.0,1520.0,100.0
25.69,0.0,0.0,0.0,0.0,0.0,0.0,1524.0,100.0
25.69,0.0,0.0,0.0,0.0,0.0,0.0,1534.0,100.0
25.73,0.0,0.0,0.0,0.0,0.0,0.0,1525.0,100.0
25.75,0.0,0.0,0.0,0.0,0.0,0.0,1518.0,100.0
25.79,0.0,0.0,0.0,0.0,0.0,0.0,1501.0,100.0
25.69,0.0,0.0,0.0,0.0,0.0,0.0,1511.0,100.0
25.75,0.0,0.0,0.0,0.0,0.0,0.0,1498.0,100.0
25.75,0.0,0.0,0.0,0.0,0.0,0.0,1502.0,100.0
25.79,0.0,0.0,0.0,0.0,0.0,0.0,1476.0,100.0
25.81,0.0,0.0,0.0,0.0,0.0,0.0,1462.0,100.0
25.73,0.0,0.0,0.0,0.0,0.0,0.0,1460.0,100.0
25.79,0.0,0.0,0.0,0.0,0.0,0.0,1455.0,100.0
25.81,0.0,0.0,0.0,0.0,0.0,0.0,1463.0,100.0
25.75,0.0,0.0,0.0,0.0,0.0,0.0,1464.0,100.0
25.79,0.0,0.0,0.0,0.0,0.0,0.0,1461.0,100.0
25.75,0.0,0.0,0.0,0.0,0.0,0.0,1470.0,100.0
25.79,0.0,0.0,0.0,0.0,0.0,0.0,1460.0,100.0
25.79,0.0,0.0,0.0,0.0,0.0,0.0,1435.0,100.0
25.75,0.0,0.0,0.0,0.0,0.0,0.0,1358.0,100.0
25.79,0.0,0.0,0.0,0.0,0.0,0.0,1320.0,100.0
25.79,0.0,0.0,0.0,0.0,0.0,0.0,1313.0,100.0
25.81,0.0,0.0,0.0,0.0,0.0,0.0,1289.0,100.0
25.85,0.0,0.0,0.0,0.0,0.0,0.0,1303.0,100.0
25.93,0.0,0.0,0.0,0.0,0.0,0.0,1288.0,100.0
25.91,0.0,0.0,0.0,0.0,0.0,0.0,1301.0,100.0
25.87,0.0,0.0,0.0,0.0,0.0,0.0,1300.0,100.0
25.97,0.0,0.0,0.0,0.0,0.0,0.0,1303.0,100.0
25.93,0.0,0.0,0.0,0.0,0.0,0.0,1314.0,100.0
25.85,0.0,0.0,0.0,0.0,0.0,0.0,1321.0,100.0
25.91,0.0,0.0,0.0,0.0,0.0,0.0,1323.0,100.0
25.91,0.0,0.0,0.0,0.0,0.0,0.0,1317.0,100.0
25.93,0.0,0.0,0.0,0.0,0.0,0.0,1319.0,100.0
25.97,0.0,0.0,0.0,0.0,0.0,0.0,1325.0,100.0
25.87,0.0,0.0,0.0,0.0,0.0,0.0,1327.0,100.0
25.93,0.0,0.0,0.0,0.0,0.0,0.0,1320.0,100.0
25.99,0.0,0.0,0.0,0.0,0.0,0.0,1327.0,100.0
25.99,0.0,0.0,0.0,0.0,0.0,0.0,1320.0,100.0
25.99,0.0,0.0,0.0,0.0,0.0,0.0,1322.0,100.0
26.03,0.0,0.0,0.0,0.0,0.0,0.0,1326.0,100.0
25.93,0.0,0.0,0.0,0.0,0.0,0.0,1297.0,100.0
26.03,0.0,0.0,0.0,0.0,0.0,0.0,1301.0,100.0
26.11,0.0,0.0,0.0,0.0,0.0,0.0,1319.0,100.0
26.03,0.0,0.0,0.0,0.0,0.0,0.0,1318.0,100.0
25.91,0.0,0.0,0.0,0.0,0.0,0.0,1326.0,100.0
25.99,0.0,0.0,0.0,0.0,0.0,0.0,1326.0,100.0
25.91,0.0,0.0,0.0,0.0,0.0,0.0,1330.0,100.0
25.87,0.0,0.0,0.0,0.0,0.0,0.0,1321.0,100.0
25.85,0.0,0.0,0.0,0.0,0.0,0.0,1332.0,100.0
25.93,0.0,0.0,0.0,0.0,0.0,0.0,1330.0,100.0
25.91,0.0,0.0,0.0,0.0,0.0,0.0,1331.0,100.0
25.93,0.0,0.0,0.0,0.0,0.0,0.0,1256.0,100.0
25.81,0.0,0.0,0.0,0.0,0.0,0.0,1299.0,100.0
25.85,0.0,0.0,0.0,0.0,0.0,0.0,1326.0,100.0
25.75,0.0,0.0,0.0,0.0,0.0,0.0,1366.0,100.0
25.75,0.0,0.0,0.0,0.0,0.0,0.0,1389.0,100.0
25.73,0.0,0.0,0.0,0.0,0.0,0.0,1400.0,100.0
25.75,0.0,0.0,0.0,0.0,0.0,0.0,1424.0,100.0
25.73,0.0,0.0,0.0,0.0,0.0,0.0,1425.0,100.0
25.73,0.0,0.0,0.0,0.0,0.0,0.0,1421.0,100.0
25.63,0.0,0.0,0.0,0.0,0.0,0.0,1417.0,100.0
25.69,0.0,0.0,0.0,0.0,0.0,0.0,1425.0,100.0
25.75,0.0,0.0,0.0,0.0,0.0,0.0,1425.0,100.0
25.73,0.0,0.0,0.0,0.0,0.0,0.0,1421.0,100.0
25.75,0.0,0.0,0.0,0.0,0.0,0.0,1414.0,100.0
25.69,0.0,0.0,0.0,0.0,0.0,0.0,1416.0,100.0
25.63,0.0,0.0,0.0,0.0,0.0,0.0,1419.0,100.0
25.73,0.0,0.0,0.0,0.0,0.0,0.0,1422.0,100.0
25.75,0.0,0.0,0.0,0.0,0.0,0.0,1421.0,100.0
25.75,0.0,0.0,0.0,0.0,0.0,0.0,1424.0,100.0
25.75,0.0,0.0,0.0,0.0,0.0,0.0,1430.0,100.0
25.75,0.0,0.0,0.0,0.0,0.0,0.0,1421.0,100.0
25.67,0.0,0.0,0.0,0.0,0.0,0.0,1420.0,100.0
25.75,0.0,0.0,0.0,0.0,0.0,0.0,1431.0,100.0
25.73,0.0,0.0,0.0,0.0,0.0,0.0,1423.0,100.0
25.79,0.0,0.0,0.0,0.0,0.0,0.0,1418.0,100.0
25.73,0.0,0.0,0.0,0.0,0.0,0.0,1415.0,100.0
25.73,0.0,0.0,0.0,0.0,0.0,0.0,1417.0,100.0
25.73,0.0,0.0,0.0,0.0,0.0,0.0,1413.0,100.0
25.73,0.0,0.0,0.0,0.0,0.0,0.0,1415.0,100.0
25.75,0.0,0.0,0.0,0.0,0.0,0.0,1412.0,100.0
25.75,0.0,0.0,0.0,0.0,0.0,0.0,1413.0,100.0
25.73,0.0,0.0,0.0,0.0,0.0,0.0,1409.0,100.0
25.75,0.0,0.0,0.0,0.0,0.0,0.0,1406.0,100.0
25.75,0.0,0.0,0.0,0.0,0.0,0.0,1399.0,100.0
25.75,0.0,0.0,0.0,0.0,0.0,0.0,1396.0,100.0
25.75,0.0,0.0,0.0,0.0,0.0,0.0,1398.0,100.0
25.73,0.0,0.0,0.0,0.0,0.0,0.0,1397.0,100.0
25.75,0.0,0.0,0.0,0.0,0.0,0.0,1393.0,100.0
25.67,0.0,0.0,0.0,0.0,0.0,0.0,1388.0,100.0
25.75,0.0,0.0,0.0,0.0,0.0,0.0,1377.0,100.0
25.79,0.0,0.0,0.0,0.0,0.0,0.0,1384.0,100.0
25.79,0.0,0.0,0.0,0.0,0.0,0.0,1383.0,100.0
25.75,0.0,0.0,0.0,0.0,0.0,0.0,1380.0,100.0
25.75,0.0,0.0,0.0,0.0,0.0,0.0,1377.0,100.0
25.79,0.0,0.0,0.0,0.0,0.0,0.0,1377.0,100.0
25.75,0.0,0.0,0.0,0.0,0.0,0.0,1381.0,100.0
25.75,0.0,0.0,0.0,0.0,0.0,0.0,1378.0,100.0
25.79,0.0,0.0,0.0,0.0,0.0,0.0,1381.0,100.0
25.79,0.0,0.0,0.0,0.0,0.0,0.0,1378.0,100.0
25.79,0.0,0.0,0.0,0.0,0.0,0.0,1379.0,100.0
25.75,0.0,0.0,0.0,0.0,0.0,0.0,1377.0,100.0
25.79,0.0,0.0,0.0,0.0,0.0,0.0,1377.0,100.0
25.79,0.0,0.0,0.0,0.0,0.0,0.0,1372.0,100.0
25.75,0.0,0.0,0.0,0.0,0.0,0.0,1378.0,100.0
25.75,0.0,0.0,0.0,0.0,0.0,0.0,1375.0,100.0
25.81,0.0,0.0,0.0,0.0,0.0,0.0,1376.0,100.0
25.79,0.0,0.0,0.0,0.0,0.0,0.0,1373.0,100.0
25.75,0.0,0.0,0.0,0.0,0.0,0.0,1369.0,100.0
25.75,0.0,0.0,0.0,0.0,0.0,0.0,1352.0,100.0
25.81,0.0,0.0,0.0,0.0,0.0,0.0,1374.0,100.0
25.79,0.0,0.0,0.0,0.0,0.0,0.0,1376.0,100.0
25.81,0.0,0.0,0.0,0.0,0.0,0.0,1377.0,100.0
25.75,0.0,0.0,0.0,0.0,0.0,0.0,1374.0,100.0
25.79,0.0,0.0,0.0,0.0,0.0,0.0,1379.0,100.0
25.79,0.0,0.0,0.0,0.0,0.0,0.0,1373.0,100.0
25.75,0.0,0.0,0.0,0.0,0.0,0.0,1371.0,100.0
25.85,0.0,0.0,0.0,0.0,0.0,0.0,1366.0,100.0
25.79,0.0,0.0,0.0,0.0,0.0,0.0,1361.0,100.0
25.79,0.0,0.0,0.0,0.0,0.0,0.0,875.0,15.0
25.87,0.0,0.0,0.0,0.0,0.0,0.0,0.0,15.0
27.05,0.0,0.0,0.0,0.0,0.0,0.0,0.0,15.0
26.97,0.0,0.0,0.0,0.0,0.0,0.0,0.0,15.0
27.75,0.0,0.0,0.0,0.0,0.0,0.0,0.0,15.0
28.23,0.0,0.0,0.0,0.0,0.0,0.0,0.0,15.0
27.61,0.0,0.0,0.0,0.0,0.0,0.0,0.0,15.0
27.47,0.0,0.0,0.0,0.0,0.0,0.0,0.0,15.0
27.21,0.0,0.0,0.0,0.0,0.0,0.0,0.0,15.0
26.73,0.0,0.0,0.0,0.0,0.0,0.0,0.0,15.0
26.83,0.0,0.0,0.0,0.0,0.0,0.0,0.0,15.0
26.87,0.0,0.0,0.0,0.0,0.0,0.0,0.0,15.0
26.93,0.0,0.0,0.0,0.0,0.0,0.0,0.0,15.0
26.91,0.0,0.0,0.0,0.0,0.0,0.0,0.0,15.0
26.87,0.0,0.0,0.0,0.0,0.0,0.0,0.0,15.0
26.91,0.0,0.0,0.0,0.0,0.0,0.0,0.0,15.0
26.97,0.0,0.0,0.0,0.0,0.0,0.0,0.0,15.0
26.93,0.0,0.0,0.0,0.0,0.0,0.0,0.0,15.0
26.91,0.0,0.0,0.0,0.0,0.0,0.0,0.0,15.0
26.83,0.0,0.0,0.0,0.0,0.0,0.0,0.0,15.0
26.87,0.0,0.0,0.0,0.0,0.0,0.0,0.0,15.0
26.91,0.0,0.0,0.0,0.0,0.0,0.0,0.0,15.0
26.91,0.0,0.0,0.0,0.0,0.0,0.0,0.0,15.0
26.93,0.0,0.0,0.0,0.0,0.0,0.0,0.0,15.0
26.91,0.0,0.0,0.0,0.0,0.0,0.0,0.0,15.0
26.87,0.0,0.0,0.0,0.0,0.0,0.0,0.0,15.0
26.93,0.0,0.0,0.0,0.0,0.0,0.0,0.0,15.0
26.85,0.0,0.0,0.0,0.0,0.0,0.0,0.0,15.0
26.91,0.0,0.0,0.0,0.0,0.0,0.0,0.0,15.0
26.87,0.0,0.0,0.0,0.0,0.0,0.0,0.0,15.0
26.91,0.0,0.0,0.0,0.0,0.0,0.0,0.0,15.0
26.91,0.0,0.0,0.0,0.0,0.0,0.0,0.0,15.0
26.91,0.0,0.0,0.0,0.0,0.0,0.0,0.0,15.0
26.93,0.0,0.0,0.0,0.0,0.0,0.0,0.0,15.0
26.91,0.0,0.0,0.0,0.0,0.0,0.0,0.0,15.0
26.99,0.0,0.0,0.0,0.0,0.0,0.0,0.0,15.0
27.03,0.0,0.0,0.0,0.0,0.0,0.0,0.0,15.0
27.05,0.0,0.0,0.0,0.0,0.0,0.0,0.0,15.0
26.99,0.0,0.0,0.0,0.0,0.0,0.0,0.0,15.0
26.97,0.0,0.0,0.0,0.0,0.0,0.0,0.0,15.0
26.93,0.0,0.0,0.0,0.0,0.0,0.0,0.0,15.0
26.99,0.0,0.0,0.0,0.0,0.0,0.0,0.0,15.0
26.99,0.0,0.0,0.0,0.0,0.0,0.0,0.0,15.0
27.05,0.0,0.0,0.0,0.0,0.0,0.0,0.0,15.0
27.05,0.0,0.0,0.0,0.0,0.0,0.0,0.0,15.0
27.05,0.0,0.0,0.0,0.0,0.0,0.0,0.0,15.0
27.09,0.0,0.0,0.0,0.0,0.0,0.0,0.0,15.0
27.11,0.0,0.0,0.0,0.0,0.0,0.0,0.0,15.0
27.09,0.0,0.0,0.0,0.0,0.0,0.0,0.0,15.0
27.09,0.0,0.0,0.0,0.0,0.0,0.0,0.0,15.0
26.99,0.0,0.0,0.0,0.0,0.0,0.0,0.0,15.0
26.97,0.0,0.0,0.0,0.0,0.0,0.0,0.0,15.0
26.97,0.0,0.0,0.0,0.0,0.0,0.0,0.0,15.0
27.03,0.0,0.0,0.0,0.0,0.0,0.0,0.0,15.0
27.05,0.0,0.0,0.0,0.0,0.0,0.0,0.0,15.0
27.09,0.0,0.0,0.0,0.0,0.0,0.0,0.0,15.0
27.05,0.0,0.0,0.0,0.0,0.0,0.0,0.0,15.0
26.97,0.0,0.0,0.0,0.0,0.0,0.0,0.0,15.0
26.93,0.0,0.0,0.0,0.0,0.0,0.0,0.0,15.0
26.91,0.0,0.0,0.0,0.0,0.0,0.0,0.0,15.0
26.87,0.0,0.0,0.0,0.0,0.0,0.0,0.0,15.0
26.99,0.0,0.0,0.0,0.0,0.0,0.0,0.0,15.0
26.97,0.0,0.0,0.0,0.0,0.0,0.0,0.0,15.0
26.97,0.0,0.0,0.0,0.0,0.0,0.0,0.0,15.0
26.93,0.0,0.0,0.0,0.0,0.0,0.0,0.0,15.0
26.93,0.0,0.0,0.0,0.0,0.0,0.0,0.0,15.0
26.97,0.0,0.0,0.0,0.0,0.0,0.0,0.0,15.0
26.97,0.0,0.0,0.0,0.0,0.0,0.0,0.0,15.0
26.97,0.0,0.0,0.0,0.0,0.0,0.0,0.0,15.0
26.83,0.0,0.0,0.0,0.0,0.0,0.0,0.0,15.0
26.67,0.0,0.0,0.0,0.0,0.0,0.0,0.0,15.0
26.65,0.0,0.0,0.0,0.0,0.0,0.0,0.0,15.0
26.65,0.0,0.0,0.0,0.0,0.0,0.0,0.0,15.0
26.61,0.0,0.0,0.0,0.0,0.0,0.0,0.0,15.0
26.61,0.0,0.0,0.0,0.0,0.0,0.0,0.0,15.0
