tempMLX,FSR_A1,FSR_A2,FSR_A3,FSR_B1,FSR_B2,FSR_B3,FSR_C,porcAper
0.0,0.0,0.0,0.0,0.0,0.0,0.0,0.0,15.0
0.0,0.0,0.0,0.0,0.0,0.0,0.0,0.0,15.0
25.55,0.0,0.0,0.0,0.0,0.0,0.0,0.0,15.0
25.61,0.0,0.0,0.0,0.0,0.0,0.0,0.0,15.0
25.67,0.0,0.0,0.0,0.0,0.0,0.0,0.0,15.0
25.79,0.0,0.0,0.0,0.0,0.0,0.0,0.0,15.0
25.75,0.0,0.0,0.0,0.0,0.0,0.0,0.0,15.0
25.85,0.0,0.0,0.0,0.0,0.0,0.0,0.0,15.0
25.79,0.0,0.0,0.0,0.0,0.0,0.0,0.0,15.0
25.81,0.0,0.0,0.0,0.0,0.0,0.0,0.0,15.0
25.75,8.0,0.0,0.0,0.0,0.0,0.0,0.0,15.0
25.73,0.0,0.0,0.0,0.0,0.0,0.0,0.0,15.0
25.69,0.0,0.0,0.0,0.0,0.0,0.0,0.0,15.0
25.69,0.0,0.0,0.0,0.0,0.0,0.0,0.0,15.0
25.67,0.0,0.0,0.0,0.0,0.0,0.0,0.0,15.0
25.73,0.0,0.0,0.0,0.0,0.0,0.0,0.0,15.0
25.69,0.0,0.0,0.0,0.0,0.0,0.0,0.0,15.0
25.67,0.0,0.0,0.0,0.0,0.0,0.0,0.0,15.0
25.61,0.0,0.0,0.0,0.0,0.0,0.0,0.0,15.0
25.69,0.0,0.0,0.0,0.0,0.0,0.0,0.0,15.0
25.59,0.0,0.0,0.0,0.0,0.0,0.0,0.0,15.0
25.67,0.0,0.0,0.0,0.0,0.0,0.0,0.0,15.0
25.63,0.0,0.0,0.0,0.0,0.0,0.0,0.0,15.0
25.67,0.0,0.0,0.0,0.0,0.0,0.0,0.0,15.0
25.63,0.0,0.0,0.0,0.0,0.0,0.0,0.0,15.0
25.59,0.0,0.0,0.0,0.0,0.0,0.0,0.0,15.0
25.61,0.0,0.0,0.0,0.0,0.0,0.0,0.0,15.0
25.67,0.0,0.0,0.0,0.0,0.0,0.0,0.0,15.0
25.63,0.0,0.0,0.0,0.0,0.0,0.0,0.0,15.0
25.63,0.0,0.0,0.0,0.0,0.0,0.0,0.0,15.0
25.63,0.0,0.0,0.0,0.0,0.0,0.0,0.0,15.0
25.59,0.0,0.0,0.0,0.0,0.0,0.0,0.0,15.0
25.61,0.0,0.0,0.0,0.0,0.0,0.0,0.0,15.0
25.67,0.0,0.0,0.0,0.0,0.0,0.0,0.0,15.0
25.61,0.0,0.0,0.0,0.0,0.0,0.0,0.0,15.0
25.69,0.0,0.0,0.0,0.0,0.0,0.0,0.0,15.0
25.69,0.0,0.0,0.0,0.0,0.0,0.0,0.0,15.0
25.73,0.0,0.0,0.0,0.0,0.0,0.0,0.0,15.0
25.73,0.0,0.0,0.0,0.0,0.0,0.0,0.0,15.0
25.69,0.0,0.0,0.0,0.0,0.0,0.0,0.0,15.0
25.67,0.0,0.0,0.0,0.0,0.0,0.0,0.0,15.0
25.69,0.0,0.0,0.0,0.0,0.0,0.0,0.0,15.0
25.67,0.0,0.0,0.0,0.0,0.0,0.0,0.0,15.0
25.69,0.0,0.0,0.0,0.0,0.0,0.0,0.0,15.0
25.67,0.0,0.0,0.0,0.0,0.0,0.0,0.0,15.0
25.61,0.0,0.0,0.0,0.0,0.0,0.0,0.0,15.0
25.61,0.0,0.0,0.0,0.0,0.0,0.0,0.0,15.0
25.69,0.0,0.0,0.0,0.0,0.0,0.0,0.0,15.0
25.61,0.0,0.0,0.0,0.0,0.0,0.0,0.0,15.0
25.63,0.0,0.0,0.0,0.0,0.0,0.0,0.0,15.0
25.55,0.0,0.0,0.0,0.0,0.0,0.0,0.0,15.0
25.59,0.0,0.0,0.0,0.0,0.0,0.0,0.0,15.0
25.61,0.0,0.0,0.0,0.0,0.0,0.0,0.0,15.0
25.59,0.0,0.0,0.0,0.0,0.0,0.0,0.0,15.0
25.63,0.0,0.0,0.0,0.0,0.0,0.0,0.0,15.0
25.61,0.0,0.0,0.0,0.0,0.0,0.0,0.0,15.0
25.61,0.0,0.0,0.0,0.0,0.0,0.0,0.0,15.0
25.59,0.0,0.0,0.0,0.0,0.0,0.0,0.0,15.0
25.55,0.0,0.0,0.0,0.0,0.0,0.0,0.0,15.0
25.67,0.0,0.0,0.0,0.0,0.0,0.0,0.0,15.0
25.61,0.0,0.0,0.0,0.0,0.0,0.0,0.0,15.0
25.61,0.0,0.0,0.0,0.0,0.0,0.0,0.0,15.0
25.61,0.0,0.0,0.0,0.0,0.0,0.0,0.0,15.0
25.61,0.0,0.0,0.0,0.0,0.0,0.0,0.0,15.0
25.55,0.0,0.0,0.0,0.0,0.0,0.0,0.0,15.0
25.55,0.0,0.0,0.0,0.0,0.0,0.0,0.0,15.0
25.59,0.0,0.0,0.0,0.0,0.0,0.0,0.0,15.0
25.59,0.0,0.0,0.0,0.0,0.0,0.0,0.0,15.0
25.59,16.0,0.0,0.0,0.0,0.0,0.0,0.0,15.0
25.59,0.0,0.0,0.0,0.0,0.0,0.0,0.0,15.0
25.55,0.0,0.0,0.0,0.0,0.0,0.0,0.0,15.0
25.55,0.0,0.0,0.0,0.0,0.0,0.0,0.0,15.0
25.53,0.0,0.0,0.0,0.0,0.0,0.0,0.0,15.0
25.59,0.0,0.0,0.0,0.0,0.0,0.0,0.0,15.0
25.59,0.0,0.0,0.0,0.0,0.0,0.0,0.0,15.0
25.47,0.0,0.0,0.0,0.0,0.0,0.0,0.0,15.0
25.63,0.0,0.0,0.0,0.0,0.0,0.0,0.0,15.0
25.55,0.0,0.0,0.0,0.0,0.0,0.0,0.0,15.0
25.61,0.0,0.0,0.0,0.0,0.0,0.0,0.0,15.0
25.59,0.0,0.0,0.0,0.0,0.0,0.0,0.0,15.0
25.61,0.0,0.0,0.0,0.0,0.0,0.0,0.0,15.0
25.61,0.0,0.0,0.0,0.0,0.0,0.0,0.0,15.0
25.61,0.0,0.0,0.0,0.0,0.0,0.0,0.0,15.0
25.61,0.0,0.0,0.0,0.0,0.0,0.0,0.0,15.0
25.61,0.0,0.0,0.0,0.0,0.0,0.0,0.0,15.0
25.63,0.0,0.0,0.0,0.0,0.0,0.0,0.0,15.0
25.67,0.0,0.0,0.0,0.0,0.0,0.0,0.0,15.0
25.63,0.0,0.0,0.0,0.0,0.0,0.0,0.0,15.0
25.63,0.0,0.0,0.0,0.0,0.0,0.0,0.0,15.0
25.61,0.0,0.0,0.0,0.0,0.0,0.0,0.0,15.0
25.59,0.0,0.0,0.0,0.0,0.0,0.0,0.0,15.0
25.59,0.0,0.0,0.0,0.0,0.0,0.0,0.0,15.0
25.63,0.0,0.0,0.0,0.0,0.0,0.0,0.0,15.0
25.79,0.0,0.0,0.0,0.0,0.0,0.0,0.0,15.0
25.73,0.0,0.0,0.0,0.0,0.0,0.0,0.0,15.0
25.75,0.0,0.0,0.0,0.0,0.0,0.0,0.0,15.0
25.79,0.0,0.0,0.0,0.0,0.0,0.0,0.0,15.0
25.75,0.0,0.0,0.0,0.0,0.0,0.0,0.0,15.0
25.69,0.0,0.0,0.0,0.0,0.0,0.0,0.0,15.0
25.61,0.0,0.0,0.0,0.0,0.0,0.0,0.0,15.0
25.61,0.0,0.0,0.0,0.0,0.0,0.0,0.0,15.0
25.55,0.0,0.0,0.0,0.0,0.0,0.0,0.0,15.0
25.47,0.0,0.0,0.0,0.0,0.0,0.0,0.0,15.0
25.69,0.0,0.0,0.0,0.0,0.0,0.0,0.0,15.0
25.69,0.0,0.0,0.0,0.0,0.0,0.0,0.0,15.0
25.67,0.0,0.0,0.0,0.0,0.0,0.0,0.0,15.0
25.69,0.0,0.0,0.0,0.0,0.0,0.0,0.0,15.0
25.61,0.0,0.0,0.0,0.0,0.0,0.0,0.0,15.0
25.63,0.0,0.0,0.0,0.0,0.0,0.0,0.0,15.0
25.67,0.0,0.0,0.0,0.0,0.0,0.0,0.0,15.0
25.67,0.0,0.0,0.0,0.0,0.0,0.0,0.0,15.0
25.59,0.0,0.0,0.0,0.0,0.0,0.0,0.0,15.0
25.67,0.0,0.0,0.0,0.0,0.0,0.0,0.0,15.0
25.63,0.0,0.0,0.0,0.0,0.0,0.0,0.0,15.0
25.67,0.0,0.0,0.0,0.0,0.0,0.0,0.0,15.0
25.69,0.0,0.0,0.0,0.0,0.0,0.0,0.0,15.0
25.67,0.0,0.0,0.0,0.0,0.0,0.0,0.0,15.0
25.73,0.0,0.0,0.0,0.0,0.0,0.0,0.0,15.0
25.69,0.0,0.0,0.0,0.0,0.0,0.0,0.0,15.0
25.67,0.0,0.0,0.0,0.0,0.0,0.0,0.0,15.0
25.55,0.0,0.0,0.0,0.0,0.0,0.0,0.0,15.0
25.47,0.0,0.0,0.0,0.0,0.0,0.0,0.0,15.0
25.59,0.0,0.0,0.0,0.0,0.0,0.0,0.0,15.0
25.49,0.0,0.0,0.0,0.0,0.0,0.0,0.0,15.0
25.61,0.0,0.0,0.0,0.0,0.0,0.0,0.0,15.0
25.63,0.0,0.0,0.0,0.0,0.0,0.0,0.0,15.0
25.61,0.0,0.0,0.0,0.0,0.0,0.0,0.0,15.0
25.61,0.0,0.0,0.0,0.0,0.0,0.0,0.0,15.0
25.59,0.0,0.0,0.0,0.0,0.0,0.0,0.0,15.0
25.55,0.0,0.0,0.0,0.0,0.0,0.0,0.0,15.0
25.55,0.0,0.0,0.0,0.0,0.0,0.0,0.0,15.0
25.49,0.0,0.0,0.0,0.0,0.0,0.0,0.0,15.0
25.43,0.0,0.0,0.0,0.0,0.0,0.0,0.0,15.0
25.55,0.0,0.0,0.0,0.0,0.0,0.0,0.0,15.0
25.55,0.0,0.0,0.0,0.0,0.0,0.0,0.0,15.0
25.59,0.0,0.0,0.0,0.0,0.0,0.0,0.0,15.0
25.55,0.0,0.0,0.0,0.0,0.0,0.0,0.0,15.0
25.61,0.0,0.0,0.0,0.0,0.0,0.0,0.0,15.0
25.61,0.0,0.0,0.0,0.0,0.0,0.0,0.0,15.0
25.59,0.0,0.0,0.0,0.0,0.0,0.0,0.0,15.0
25.55,0.0,0.0,0.0,0.0,0.0,0.0,0.0,15.0
25.59,0.0,0.0,0.0,0.0,0.0,0.0,0.0,15.0
25.61,0.0,0.0,0.0,0.0,0.0,0.0,0.0,15.0
25.55,0.0,0.0,0.0,0.0,0.0,0.0,0.0,15.0
25.67,0.0,0.0,0.0,0.0,0.0,0.0,0.0,15.0
25.93,0.0,0.0,0.0,0.0,0.0,0.0,0.0,15.0
25.93,0.0,0.0,0.0,0.0,0.0,0.0,0.0,15.0
26.11,0.0,0.0,0.0,0.0,0.0,0.0,0.0,15.0
26.11,0.0,0.0,0.0,0.0,0.0,0.0,0.0,15.0
26.09,0.0,0.0,0.0,0.0,0.0,0.0,0.0,15.0
26.17,0.0,0.0,0.0,0.0,0.0,0.0,0.0,25.0
26.15,0.0,0.0,0.0,0.0,0.0,0.0,0.0,35.0
26.09,0.0,0.0,0.0,0.0,0.0,0.0,0.0,45.0
26.15,0.0,0.0,0.0,0.0,0.0,0.0,0.0,53.0
26.27,0.0,0.0,0.0,0.0,0.0,0.0,0.0,64.0
26.23,0.0,0.0,0.0,0.0,0.0,0.0,0.0,75.0
26.15,0.0,0.0,0.0,0.0,0.0,0.0,0.0,87.0
26.09,0.0,0.0,0.0,0.0,0.0,0.0,52.0,96.0
26.05,0.0,0.0,0.0,0.0,0.0,0.0,95.0,98.0
26.05,0.0,0.0,0.0,0.0,0.0,0.0,147.0,98.0
26.03,0.0,0.0,0.0,0.0,0.0,0.0,157.0,98.0
26.03,0.0,0.0,0.0,0.0,0.0,0.0,165.0,98.0
26.05,0.0,0.0,0.0,0.0,0.0,0.0,178.0,98.0
26.05,0.0,0.0,0.0,0.0,0.0,0.0,197.0,98.0
25.99,0.0,0.0,0.0,0.0,0.0,0.0,191.0,98.0
26.03,0.0,0.0,0.0,0.0,0.0,0.0,211.0,98.0
26.05,0.0,0.0,0.0,0.0,0.0,0.0,202.0,98.0
26.09,0.0,0.0,0.0,0.0,0.0,0.0,209.0,98.0
25.97,0.0,0.0,0.0,0.0,0.0,0.0,207.0,98.0
25.99,0.0,0.0,0.0,0.0,0.0,0.0,207.0,98.0
26.03,0.0,0.0,0.0,0.0,0.0,0.0,211.0,98.0
25.99,0.0,0.0,0.0,0.0,0.0,0.0,217.0,98.0
25.99,0.0,0.0,0.0,0.0,0.0,0.0,228.0,98.0
26.09,0.0,0.0,0.0,0.0,0.0,0.0,226.0,98.0
26.03,0.0,0.0,0.0,0.0,0.0,0.0,225.0,98.0
26.05,0.0,0.0,0.0,0.0,0.0,0.0,225.0,100.0
25.97,0.0,0.0,0.0,0.0,0.0,0.0,214.0,100.0
26.05,0.0,0.0,0.0,0.0,0.0,0.0,216.0,100.0
25.97,0.0,0.0,0.0,0.0,0.0,0.0,209.0,100.0
25.97,0.0,0.0,0.0,0.0,0.0,0.0,220.0,100.0
25.99,0.0,0.0,0.0,0.0,0.0,0.0,227.0,100.0
25.91,0.0,0.0,0.0,0.0,0.0,0.0,234.0,100.0
25.97,0.0,0.0,0.0,0.0,0.0,0.0,232.0,100.0
25.93,0.0,0.0,0.0,0.0,0.0,0.0,225.0,100.0
25.93,0.0,0.0,0.0,0.0,0.0,0.0,220.0,100.0
25.91,0.0,0.0,0.0,0.0,0.0,0.0,235.0,100.0
25.93,0.0,0.0,0.0,0.0,0.0,0.0,232.0,100.0
25.99,0.0,0.0,0.0,0.0,0.0,0.0,220.0,100.0
26.03,0.0,0.0,0.0,0.0,0.0,0.0,230.0,100.0
26.05,0.0,0.0,0.0,0.0,0.0,0.0,225.0,100.0
26.05,0.0,0.0,0.0,0.0,0.0,0.0,225.0,100.0
25.99,0.0,0.0,0.0,0.0,0.0,0.0,232.0,100.0
26.05,0.0,0.0,0.0,0.0,0.0,0.0,230.0,100.0
26.11,0.0,0.0,0.0,0.0,0.0,0.0,230.0,100.0
25.99,0.0,0.0,0.0,0.0,0.0,0.0,236.0,100.0
26.05,0.0,0.0,0.0,0.0,0.0,0.0,238.0,100.0
26.03,0.0,0.0,0.0,0.0,0.0,0.0,230.0,100.0
26.05,0.0,0.0,0.0,0.0,0.0,0.0,240.0,100.0
26.05,0.0,0.0,0.0,0.0,0.0,0.0,241.0,100.0
25.99,0.0,0.0,0.0,0.0,0.0,0.0,246.0,100.0
25.97,0.0,0.0,0.0,0.0,0.0,0.0,245.0,100.0
25.97,0.0,0.0,0.0,0.0,0.0,0.0,243.0,100.0
25.97,0.0,0.0,0.0,0.0,0.0,0.0,249.0,100.0
25.93,0.0,0.0,0.0,0.0,0.0,0.0,249.0,100.0
26.03,0.0,0.0,0.0,0.0,0.0,0.0,251.0,100.0
25.97,0.0,0.0,0.0,0.0,0.0,0.0,247.0,100.0
25.91,0.0,0.0,0.0,0.0,0.0,0.0,249.0,100.0
25.81,0.0,0.0,0.0,0.0,0.0,0.0,256.0,100.0
25.93,0.0,0.0,0.0,0.0,0.0,0.0,264.0,100.0
25.85,0.0,0.0,0.0,0.0,0.0,0.0,262.0,100.0
25.85,0.0,0.0,0.0,0.0,0.0,0.0,257.0,100.0
25.87,0.0,0.0,0.0,0.0,0.0,0.0,263.0,100.0
25.87,0.0,0.0,0.0,0.0,0.0,0.0,261.0,100.0
25.85,0.0,0.0,0.0,0.0,0.0,0.0,268.0,100.0
25.73,0.0,0.0,0.0,0.0,0.0,0.0,281.0,100.0
25.69,0.0,0.0,0.0,0.0,0.0,0.0,281.0,100.0
25.73,0.0,0.0,0.0,0.0,0.0,0.0,269.0,100.0
25.79,0.0,0.0,0.0,0.0,0.0,0.0,272.0,100.0
25.75,0.0,0.0,0.0,0.0,0.0,0.0,269.0,100.0
25.79,0.0,0.0,0.0,0.0,0.0,0.0,274.0,100.0
25.73,0.0,0.0,0.0,0.0,0.0,0.0,279.0,100.0
25.75,0.0,0.0,0.0,0.0,0.0,0.0,273.0,100.0
25.81,0.0,0.0,0.0,0.0,0.0,0.0,270.0,100.0
25.79,0.0,0.0,0.0,0.0,0.0,0.0,277.0,100.0
25.81,0.0,0.0,0.0,0.0,0.0,0.0,280.0,100.0
25.81,0.0,0.0,0.0,0.0,0.0,0.0,287.0,100.0
25.75,0.0,0.0,0.0,0.0,0.0,0.0,288.0,100.0
25.79,0.0,0.0,0.0,0.0,0.0,0.0,285.0,100.0
25.75,0.0,0.0,0.0,0.0,0.0,0.0,290.0,100.0
25.73,0.0,0.0,0.0,0.0,0.0,0.0,291.0,100.0
25.75,0.0,0.0,0.0,0.0,0.0,0.0,294.0,100.0
25.75,0.0,0.0,0.0,0.0,0.0,0.0,296.0,100.0
25.75,0.0,0.0,0.0,0.0,0.0,0.0,298.0,100.0
25.79,0.0,0.0,0.0,0.0,0.0,0.0,315.0,100.0
25.81,0.0,0.0,0.0,0.0,0.0,0.0,316.0,100.0
25.75,0.0,0.0,0.0,0.0,0.0,0.0,314.0,100.0
25.79,0.0,0.0,0.0,0.0,0.0,0.0,318.0,100.0
25.81,0.0,0.0,0.0,0.0,0.0,0.0,319.0,100.0
25.79,0.0,0.0,0.0,0.0,0.0,0.0,329.0,15.0
25.81,0.0,0.0,0.0,0.0,0.0,0.0,0.0,15.0
25.85,0.0,0.0,0.0,0.0,0.0,0.0,0.0,15.0
25.73,0.0,0.0,0.0,0.0,0.0,0.0,0.0,15.0
25.79,0.0,0.0,0.0,0.0,0.0,0.0,0.0,15.0
25.73,0.0,0.0,0.0,0.0,0.0,0.0,0.0,15.0
25.79,0.0,0.0,0.0,0.0,0.0,0.0,0.0,15.0
25.79,0.0,0.0,0.0,0.0,0.0,0.0,0.0,15.0
26.31,0.0,0.0,0.0,0.0,0.0,0.0,0.0,15.0
26.43,0.0,0.0,0.0,0.0,0.0,0.0,0.0,15.0
26.79,0.0,0.0,0.0,0.0,0.0,0.0,0.0,15.0
25.61,0.0,0.0,0.0,0.0,0.0,0.0,0.0,15.0
25.61,0.0,0.0,0.0,0.0,0.0,0.0,0.0,15.0
25.61,0.0,0.0,0.0,0.0,0.0,0.0,0.0,15.0
25.73,0.0,0.0,0.0,0.0,0.0,0.0,0.0,15.0
25.61,0.0,0.0,0.0,0.0,0.0,0.0,0.0,15.0
25.63,0.0,0.0,0.0,136.0,0.0,0.0,0.0,15.0
25.63,0.0,0.0,0.0,0.0,0.0,0.0,0.0,15.0
25.67,0.0,0.0,0.0,0.0,0.0,0.0,0.0,15.0
25.69,0.0,0.0,0.0,0.0,0.0,0.0,0.0,15.0
25.67,0.0,0.0,0.0,0.0,0.0,0.0,0.0,15.0
25.61,0.0,0.0,0.0,0.0,0.0,0.0,0.0,15.0
25.67,0.0,0.0,0.0,0.0,0.0,0.0,0.0,15.0
25.73,0.0,0.0,0.0,0.0,0.0,0.0,0.0,15.0
25.79,0.0,0.0,0.0,0.0,0.0,0.0,0.0,15.0
25.79,0.0,0.0,0.0,0.0,0.0,0.0,0.0,15.0
25.75,0.0,0.0,0.0,0.0,0.0,0.0,0.0,15.0
25.75,0.0,0.0,0.0,0.0,0.0,0.0,0.0,15.0
25.75,0.0,0.0,0.0,0.0,0.0,0.0,0.0,15.0
25.75,0.0,0.0,0.0,0.0,0.0,0.0,2.0,15.0
25.67,0.0,0.0,0.0,0.0,0.0,0.0,0.0,15.0
25.63,0.0,0.0,0.0,0.0,0.0,0.0,0.0,15.0
25.61,0.0,0.0,0.0,0.0,0.0,0.0,0.0,15.0
25.55,0.0,0.0,0.0,0.0,0.0,0.0,0.0,15.0
25.59,0.0,0.0,0.0,0.0,0.0,0.0,0.0,15.0
25.61,0.0,0.0,0.0,0.0,0.0,0.0,0.0,15.0
25.59,0.0,0.0,0.0,0.0,0.0,0.0,0.0,15.0
25.59,0.0,0.0,0.0,0.0,0.0,0.0,0.0,15.0
25.61,0.0,0.0,0.0,0.0,0.0,0.0,0.0,15.0
25.59,0.0,0.0,0.0,0.0,0.0,0.0,0.0,15.0
25.49,0.0,0.0,0.0,0.0,0.0,0.0,0.0,15.0
25.49,0.0,0.0,0.0,0.0,0.0,0.0,0.0,15.0
25.49,0.0,0.0,0.0,0.0,0.0,0.0,0.0,15.0
25.49,0.0,0.0,0.0,0.0,0.0,0.0,0.0,15.0
25.49,0.0,0.0,0.0,0.0,0.0,0.0,0.0,15.0
25.49,0.0,0.0,0.0,0.0,0.0,0.0,0.0,15.0
25.53,0.0,0.0,0.0,0.0,0.0,0.0,0.0,15.0
25.67,0.0,0.0,0.0,0.0,0.0,0.0,0.0,15.0
25.63,0.0,0.0,0.0,0.0,0.0,0.0,0.0,15.0
25.63,0.0,0.0,0.0,0.0,0.0,0.0,0.0,15.0
25.59,0.0,0.0,0.0,0.0,0.0,0.0,0.0,15.0
25.61,0.0,0.0,0.0,0.0,0.0,0.0,0.0,15.0
25.91,0.0,0.0,0.0,0.0,0.0,0.0,0.0,15.0
25.69,0.0,0.0,0.0,0.0,0.0,0.0,0.0,18.0
25.73,0.0,0.0,0.0,0.0,0.0,0.0,0.0,28.0
25.81,0.0,0.0,0.0,0.0,0.0,0.0,0.0,37.0
25.81,0.0,0.0,0.0,0.0,0.0,0.0,0.0,47.0
25.97,0.0,0.0,0.0,0.0,0.0,0.0,0.0,57.0
25.97,0.0,0.0,0.0,0.0,0.0,0.0,0.0,66.0
26.05,0.0,0.0,0.0,0.0,0.0,0.0,0.0,76.0
25.99,0.0,0.0,0.0,0.0,0.0,0.0,0.0,86.0
25.91,0.0,0.0,0.0,0.0,0.0,0.0,255.0,96.0
25.85,0.0,80.0,0.0,0.0,332.0,0.0,1453.0,100.0
25.93,0.0,91.0,0.0,0.0,178.0,0.0,1592.0,100.0
25.79,0.0,112.0,0.0,0.0,176.0,0.0,1624.0,100.0
25.93,0.0,113.0,0.0,0.0,177.0,0.0,1614.0,100.0
25.85,0.0,114.0,0.0,0.0,183.0,0.0,1624.0,100.0
25.85,0.0,112.0,0.0,0.0,183.0,0.0,1637.0,100.0
25.93,0.0,97.0,0.0,0.0,187.0,0.0,1671.0,100.0
25.91,0.0,112.0,0.0,0.0,201.0,0.0,1673.0,100.0
25.87,0.0,112.0,0.0,0.0,192.0,0.0,1685.0,100.0
25.81,0.0,62.0,0.0,0.0,203.0,0.0,1702.0,100.0
25.87,0.0,187.0,0.0,0.0,196.0,0.0,1701.0,100.0
25.87,0.0,92.0,0.0,0.0,146.0,0.0,1592.0,100.0
25.93,0.0,81.0,0.0,0.0,145.0,0.0,1574.0,100.0
25.81,0.0,75.0,0.0,0.0,141.0,0.0,1513.0,100.0
25.81,0.0,87.0,0.0,0.0,149.0,0.0,1484.0,100.0
25.97,0.0,96.0,0.0,0.0,160.0,0.0,1493.0,100.0
25.93,0.0,93.0,0.0,0.0,174.0,0.0,1473.0,100.0
25.97,0.0,86.0,0.0,0.0,186.0,0.0,1492.0,100.0
25.93,0.0,104.0,0.0,0.0,194.0,0.0,1493.0,100.0
25.85,0.0,154.0,0.0,0.0,353.0,0.0,1745.0,100.0
25.91,0.0,243.0,0.0,0.0,386.0,0.0,1815.0,100.0
26.03,0.0,176.0,0.0,0.0,407.0,0.0,1832.0,100.0
25.93,0.0,176.0,0.0,0.0,411.0,0.0,1855.0,100.0
25.93,0.0,195.0,0.0,0.0,414.0,0.0,1865.0,100.0
25.97,0.0,181.0,0.0,0.0,421.0,0.0,1887.0,100.0
25.97,0.0,183.0,0.0,0.0,419.0,0.0,1906.0,100.0
25.93,0.0,192.0,0.0,0.0,410.0,0.0,1911.0,100.0
25.93,0.0,189.0,0.0,0.0,427.0,0.0,1906.0,100.0
25.87,0.0,179.0,0.0,0.0,414.0,0.0,1915.0,100.0
25.91,0.0,180.0,0.0,0.0,422.0,0.0,1913.0,100.0
25.91,0.0,182.0,0.0,0.0,407.0,0.0,1920.0,100.0
25.81,0.0,177.0,0.0,0.0,418.0,0.0,1924.0,100.0
25.81,0.0,180.0,0.0,0.0,416.0,0.0,1921.0,100.0
25.79,0.0,150.0,0.0,0.0,487.0,0.0,1926.0,100.0
25.81,0.0,176.0,0.0,0.0,420.0,0.0,1924.0,100.0
25.81,0.0,172.0,0.0,0.0,410.0,0.0,1916.0,100.0
25.75,0.0,165.0,0.0,0.0,430.0,0.0,1942.0,100.0
25.75,0.0,168.0,0.0,0.0,428.0,0.0,1946.0,100.0
25.75,0.0,197.0,0.0,0.0,462.0,0.0,1947.0,100.0
25.73,0.0,160.0,0.0,0.0,415.0,0.0,1956.0,100.0
25.67,0.0,170.0,0.0,0.0,450.0,0.0,1957.0,100.0
25.75,0.0,173.0,0.0,16.0,449.0,0.0,1961.0,100.0
25.79,0.0,167.0,0.0,0.0,445.0,0.0,1966.0,100.0
25.73,0.0,166.0,0.0,0.0,446.0,0.0,1976.0,100.0
25.81,0.0,170.0,0.0,0.0,442.0,0.0,1968.0,100.0
25.85,0.0,155.0,0.0,0.0,444.0,0.0,1971.0,100.0
25.79,0.0,166.0,0.0,0.0,446.0,0.0,1965.0,100.0
25.81,0.0,163.0,0.0,0.0,456.0,0.0,1973.0,100.0
25.79,0.0,160.0,0.0,0.0,449.0,0.0,1964.0,100.0
25.91,0.0,0.0,0.0,0.0,497.0,0.0,1970.0,100.0
25.91,0.0,169.0,0.0,0.0,446.0,0.0,1970.0,100.0
25.85,0.0,176.0,0.0,0.0,453.0,0.0,1975.0,100.0
25.93,0.0,167.0,0.0,204.0,454.0,0.0,1965.0,100.0
25.85,0.0,166.0,0.0,0.0,457.0,0.0,1962.0,100.0
25.81,0.0,172.0,0.0,0.0,453.0,0.0,1974.0,100.0
25.93,0.0,166.0,0.0,0.0,443.0,0.0,1981.0,100.0
25.85,0.0,168.0,0.0,0.0,460.0,0.0,1982.0,100.0
25.91,0.0,166.0,0.0,0.0,452.0,0.0,1984.0,100.0
25.81,0.0,168.0,0.0,0.0,454.0,0.0,1985.0,100.0
25.87,0.0,174.0,0.0,0.0,448.0,0.0,1982.0,100.0
25.91,0.0,171.0,0.0,0.0,444.0,0.0,1978.0,100.0
25.91,0.0,171.0,0.0,0.0,403.0,0.0,1981.0,100.0
25.85,0.0,171.0,0.0,0.0,453.0,0.0,1979.0,100.0
25.79,0.0,128.0,0.0,0.0,462.0,0.0,1983.0,100.0
25.91,0.0,82.0,0.0,0.0,459.0,0.0,1985.0,100.0
25.85,0.0,162.0,0.0,0.0,458.0,0.0,1988.0,100.0
25.81,0.0,167.0,0.0,0.0,465.0,0.0,1982.0,100.0
25.85,0.0,169.0,0.0,0.0,454.0,0.0,1983.0,100.0
25.81,0.0,160.0,0.0,0.0,463.0,0.0,1983.0,100.0
25.81,0.0,210.0,0.0,0.0,460.0,0.0,1975.0,100.0
25.85,0.0,168.0,0.0,0.0,467.0,0.0,1987.0,100.0
25.85,0.0,164.0,0.0,0.0,462.0,0.0,1980.0,100.0
25.79,0.0,171.0,0.0,0.0,449.0,0.0,1986.0,100.0
25.85,0.0,166.0,0.0,0.0,451.0,0.0,1980.0,100.0
25.81,0.0,164.0,0.0,0.0,449.0,0.0,1985.0,100.0
25.81,0.0,164.0,0.0,0.0,462.0,0.0,1989.0,100.0
25.81,0.0,171.0,0.0,0.0,463.0,0.0,1988.0,100.0
25.85,0.0,157.0,0.0,0.0,443.0,0.0,1991.0,100.0
25.81,0.0,160.0,0.0,0.0,476.0,0.0,1979.0,100.0
25.81,0.0,147.0,0.0,0.0,448.0,0.0,1988.0,100.0
25.91,0.0,171.0,0.0,0.0,496.0,0.0,1986.0,100.0
25.81,0.0,128.0,0.0,0.0,464.0,0.0,1994.0,100.0
25.81,0.0,0.0,0.0,0.0,0.0,0.0,126.0,15.0
25.75,0.0,0.0,0.0,0.0,0.0,0.0,3.0,15.0
25.61,0.0,0.0,0.0,0.0,0.0,0.0,0.0,15.0
25.63,0.0,0.0,0.0,0.0,0.0,0.0,0.0,15.0
25.63,0.0,0.0,0.0,0.0,0.0,0.0,0.0,15.0
25.73,0.0,0.0,0.0,0.0,0.0,0.0,0.0,15.0
25.91,0.0,0.0,0.0,0.0,0.0,0.0,0.0,15.0
25.79,0.0,0.0,0.0,0.0,0.0,0.0,0.0,15.0
25.99,0.0,0.0,0.0,0.0,0.0,0.0,0.0,15.0
26.09,0.0,0.0,0.0,0.0,0.0,0.0,0.0,15.0
26.09,0.0,0.0,0.0,0.0,0.0,0.0,0.0,15.0
25.81,0.0,0.0,0.0,0.0,0.0,0.0,0.0,15.0
25.63,0.0,0.0,0.0,0.0,0.0,0.0,0.0,15.0
25.61,0.0,0.0,0.0,0.0,0.0,0.0,0.0,15.0
25.43,0.0,0.0,0.0,0.0,0.0,0.0,0.0,15.0
25.49,0.0,0.0,0.0,0.0,0.0,0.0,0.0,15.0
25.47,0.0,0.0,0.0,0.0,0.0,0.0,0.0,15.0
25.47,0.0,0.0,0.0,0.0,0.0,0.0,0.0,15.0
25.49,0.0,0.0,0.0,0.0,0.0,0.0,0.0,15.0
25.55,0.0,0.0,0.0,0.0,0.0,0.0,0.0,15.0
25.43,0.0,0.0,0.0,0.0,0.0,0.0,0.0,15.0
25.41,0.0,0.0,0.0,0.0,0.0,0.0,0.0,15.0
25.55,0.0,0.0,0.0,0.0,0.0,0.0,0.0,15.0
25.47,0.0,0.0,0.0,0.0,0.0,0.0,0.0,15.0
25.55,0.0,0.0,0.0,0.0,0.0,0.0,0.0,15.0
25.53,0.0,0.0,0.0,0.0,0.0,0.0,0.0,15.0
25.43,0.0,0.0,0.0,0.0,0.0,0.0,0.0,15.0
25.55,0.0,0.0,0.0,0.0,0.0,0.0,0.0,15.0
25.55,0.0,0.0,0.0,0.0,0.0,0.0,0.0,15.0
25.55,0.0,0.0,0.0,0.0,0.0,0.0,0.0,15.0
25.47,0.0,0.0,0.0,0.0,0.0,0.0,0.0,15.0
25.47,0.0,0.0,0.0,0.0,0.0,80.0,0.0,15.0
25.55,0.0,0.0,0.0,0.0,0.0,0.0,0.0,15.0
25.49,0.0,0.0,0.0,0.0,0.0,0.0,0.0,15.0
25.53,0.0,0.0,0.0,0.0,0.0,0.0,0.0,15.0
25.53,0.0,0.0,0.0,0.0,0.0,0.0,0.0,15.0
25.53,0.0,0.0,0.0,0.0,0.0,0.0,0.0,15.0
25.53,0.0,0.0,0.0,0.0,0.0,0.0,0.0,15.0
25.55,0.0,0.0,0.0,0.0,0.0,0.0,0.0,15.0
25.53,0.0,0.0,0.0,0.0,0.0,0.0,0.0,15.0
25.55,0.0,0.0,0.0,0.0,0.0,0.0,0.0,15.0
25.85,0.0,0.0,0.0,0.0,0.0,0.0,0.0,15.0
26.03,0.0,0.0,0.0,0.0,0.0,0.0,0.0,15.0
26.11,0.0,0.0,0.0,0.0,0.0,0.0,0.0,15.0
26.09,0.0,0.0,0.0,0.0,0.0,0.0,0.0,15.0
26.11,0.0,0.0,0.0,0.0,0.0,0.0,0.0,15.0
25.99,0.0,0.0,0.0,0.0,0.0,0.0,0.0,15.0
25.97,0.0,0.0,0.0,0.0,0.0,0.0,0.0,15.0
25.99,0.0,0.0,0.0,0.0,0.0,0.0,0.0,15.0
26.05,0.0,0.0,0.0,0.0,0.0,0.0,0.0,15.0
26.29,0.0,0.0,0.0,0.0,0.0,0.0,0.0,15.0
26.59,0.0,0.0,0.0,0.0,0.0,0.0,0.0,15.0
27.35,0.0,0.0,0.0,0.0,0.0,0.0,0.0,15.0
29.97,0.0,0.0,0.0,0.0,0.0,0.0,0.0,15.0
34.39,0.0,0.0,0.0,0.0,0.0,0.0,0.0,15.0
36.41,0.0,0.0,0.0,0.0,0.0,0.0,0.0,15.0
37.51,0.0,0.0,0.0,0.0,0.0,0.0,0.0,15.0
37.13,0.0,0.0,0.0,0.0,0.0,0.0,0.0,15.0
36.95,0.0,0.0,0.0,0.0,0.0,0.0,0.0,15.0
36.37,0.0,0.0,0.0,0.0,0.0,0.0,0.0,15.0
35.63,0.0,0.0,0.0,0.0,0.0,0.0,0.0,17.0
34.99,0.0,0.0,0.0,0.0,0.0,0.0,0.0,27.0
34.25,0.0,0.0,0.0,0.0,0.0,0.0,0.0,37.0
34.71,0.0,0.0,0.0,0.0,0.0,0.0,0.0,46.0
35.09,0.0,0.0,0.0,0.0,0.0,0.0,0.0,55.0
35.81,0.0,0.0,0.0,0.0,0.0,0.0,10.0,65.0
35.89,0.0,0.0,0.0,0.0,0.0,0.0,2029.0,76.0
35.83,0.0,0.0,0.0,0.0,0.0,0.0,2238.0,85.0
35.85,0.0,0.0,0.0,0.0,0.0,0.0,2282.0,95.0
35.85,0.0,0.0,0.0,0.0,0.0,0.0,2309.0,100.0
35.91,0.0,0.0,0.0,0.0,0.0,0.0,2327.0,100.0
35.81,0.0,0.0,0.0,0.0,0.0,0.0,2331.0,100.0
35.85,0.0,0.0,0.0,0.0,0.0,0.0,2339.0,100.0
35.93,0.0,0.0,0.0,0.0,0.0,0.0,2322.0,100.0
35.85,0.0,0.0,0.0,0.0,0.0,0.0,2375.0,100.0
35.85,0.0,0.0,0.0,0.0,0.0,0.0,2403.0,100.0
35.89,0.0,0.0,0.0,0.0,0.0,0.0,2404.0,100.0
35.85,0.0,0.0,0.0,0.0,0.0,0.0,2342.0,100.0
35.85,0.0,0.0,0.0,0.0,0.0,0.0,2346.0,100.0
35.91,0.0,0.0,0.0,0.0,0.0,0.0,2345.0,100.0
36.01,0.0,0.0,0.0,0.0,0.0,0.0,2343.0,100.0
36.01,0.0,0.0,0.0,0.0,0.0,0.0,2342.0,100.0
36.15,0.0,0.0,0.0,0.0,0.0,0.0,2348.0,100.0
36.09,0.0,0.0,0.0,0.0,0.0,0.0,2341.0,100.0
36.17,0.0,0.0,0.0,0.0,0.0,0.0,2354.0,100.0
36.15,0.0,0.0,0.0,0.0,0.0,0.0,2365.0,100.0
36.13,0.0,0.0,0.0,0.0,0.0,0.0,2326.0,100.0
36.15,0.0,0.0,0.0,0.0,0.0,0.0,2305.0,100.0
36.13,0.0,0.0,0.0,0.0,0.0,0.0,2233.0,100.0
36.05,0.0,0.0,0.0,0.0,0.0,0.0,2089.0,100.0
36.01,0.0,0.0,0.0,0.0,0.0,0.0,2075.0,100.0
36.01,0.0,0.0,0.0,0.0,0.0,0.0,2022.0,100.0
36.01,0.0,0.0,0.0,0.0,0.0,0.0,2029.0,100.0
36.05,0.0,0.0,0.0,0.0,0.0,0.0,2034.0,100.0
36.09,0.0,0.0,0.0,0.0,0.0,0.0,2059.0,100.0
36.13,0.0,0.0,0.0,0.0,0.0,0.0,2090.0,100.0
36.15,0.0,0.0,0.0,0.0,0.0,0.0,2084.0,100.0
36.13,0.0,0.0,0.0,0.0,0.0,0.0,2094.0,100.0
36.17,0.0,0.0,0.0,0.0,80.0,0.0,2090.0,100.0
36.23,0.0,0.0,0.0,0.0,0.0,0.0,2104.0,100.0
36.15,0.0,0.0,0.0,0.0,0.0,0.0,2099.0,100.0
36.17,0.0,0.0,0.0,0.0,0.0,0.0,2073.0,100.0
36.17,0.0,0.0,0.0,0.0,0.0,0.0,2116.0,100.0
36.15,0.0,0.0,0.0,0.0,0.0,0.0,2162.0,100.0
36.21,0.0,0.0,0.0,0.0,0.0,0.0,2164.0,100.0
36.17,0.0,0.0,0.0,0.0,0.0,0.0,2189.0,100.0
36.15,0.0,0.0,0.0,0.0,0.0,0.0,2198.0,100.0
36.17,0.0,0.0,0.0,0.0,0.0,0.0,2206.0,100.0
36.21,0.0,0.0,0.0,0.0,0.0,0.0,2232.0,100.0
36.17,0.0,0.0,0.0,0.0,0.0,0.0,2290.0,100.0
36.21,0.0,0.0,0.0,0.0,0.0,0.0,2307.0,100.0
36.23,0.0,0.0,0.0,0.0,0.0,0.0,2323.0,100.0
36.25,0.0,0.0,0.0,0.0,0.0,0.0,2330.0,100.0
36.29,0.0,0.0,0.0,0.0,0.0,0.0,2338.0,100.0
36.33,0.0,0.0,0.0,0.0,0.0,0.0,2337.0,100.0
36.29,0.0,0.0,0.0,0.0,0.0,0.0,2338.0,100.0
36.29,0.0,0.0,0.0,0.0,0.0,0.0,2329.0,100.0
36.31,0.0,0.0,0.0,0.0,0.0,0.0,2328.0,100.0
36.31,0.0,0.0,0.0,0.0,0.0,0.0,2336.0,100.0
36.31,0.0,0.0,0.0,0.0,0.0,0.0,2335.0,100.0
36.33,0.0,0.0,0.0,0.0,0.0,0.0,2337.0,100.0
36.29,0.0,0.0,0.0,0.0,0.0,0.0,2341.0,100.0
36.33,0.0,0.0,0.0,0.0,0.0,0.0,2351.0,100.0
36.31,0.0,0.0,0.0,0.0,0.0,0.0,2401.0,100.0
36.29,0.0,0.0,0.0,0.0,0.0,0.0,2437.0,100.0
36.31,64.0,0.0,0.0,0.0,0.0,0.0,2428.0,100.0
36.25,0.0,0.0,0.0,0.0,0.0,0.0,2465.0,100.0
36.31,0.0,0.0,0.0,0.0,0.0,0.0,2429.0,100.0
36.45,0.0,0.0,0.0,0.0,0.0,0.0,2451.0,100.0
36.45,0.0,0.0,0.0,0.0,0.0,0.0,2453.0,100.0
36.47,0.0,0.0,0.0,0.0,0.0,0.0,2445.0,100.0
36.69,0.0,0.0,0.0,0.0,0.0,0.0,2452.0,100.0
36.61,0.0,0.0,0.0,0.0,0.0,0.0,2458.0,100.0
36.47,0.0,0.0,0.0,0.0,0.0,0.0,2460.0,100.0
36.45,0.0,0.0,0.0,0.0,0.0,0.0,2456.0,100.0
36.47,0.0,0.0,0.0,0.0,0.0,0.0,2457.0,100.0
36.53,0.0,0.0,0.0,0.0,0.0,0.0,2462.0,100.0
36.55,0.0,0.0,0.0,0.0,0.0,0.0,2463.0,100.0
36.61,0.0,0.0,0.0,0.0,0.0,0.0,2463.0,100.0
36.49,0.0,0.0,0.0,0.0,0.0,0.0,2459.0,100.0
36.57,0.0,0.0,0.0,0.0,0.0,0.0,2468.0,100.0
36.49,0.0,0.0,0.0,0.0,0.0,0.0,2474.0,100.0
36.47,0.0,0.0,0.0,0.0,0.0,0.0,2475.0,100.0
36.65,0.0,0.0,0.0,0.0,0.0,0.0,243.0,15.0
38.45,0.0,0.0,0.0,0.0,0.0,0.0,0.0,15.0
26.11,0.0,0.0,0.0,0.0,0.0,0.0,0.0,15.0
26.09,0.0,0.0,0.0,0.0,0.0,0.0,0.0,15.0
25.97,0.0,0.0,0.0,0.0,0.0,0.0,0.0,15.0
25.93,0.0,0.0,0.0,0.0,0.0,0.0,0.0,15.0
25.97,0.0,0.0,0.0,0.0,0.0,0.0,0.0,15.0
27.21,0.0,0.0,0.0,0.0,0.0,0.0,0.0,15.0
27.41,0.0,0.0,0.0,208.0,0.0,0.0,0.0,15.0
27.67,0.0,0.0,0.0,0.0,0.0,0.0,0.0,15.0
27.55,0.0,0.0,0.0,0.0,0.0,0.0,0.0,15.0
27.81,0.0,0.0,0.0,0.0,0.0,0.0,0.0,15.0
27.15,0.0,0.0,0.0,0.0,0.0,0.0,0.0,15.0
26.03,0.0,0.0,0.0,0.0,0.0,0.0,0.0,15.0
25.97,0.0,0.0,0.0,0.0,0.0,0.0,0.0,15.0
25.85,0.0,0.0,0.0,0.0,0.0,0.0,0.0,15.0
25.85,0.0,0.0,0.0,0.0,0.0,0.0,0.0,15.0
25.85,0.0,0.0,0.0,0.0,0.0,0.0,0.0,15.0
25.75,0.0,0.0,0.0,0.0,0.0,0.0,0.0,15.0
25.85,0.0,0.0,0.0,0.0,0.0,0.0,0.0,15.0
25.79,0.0,0.0,0.0,0.0,0.0,0.0,0.0,15.0
25.75,0.0,0.0,0.0,0.0,0.0,0.0,0.0,15.0
25.79,0.0,0.0,0.0,0.0,0.0,0.0,0.0,15.0
25.79,0.0,0.0,0.0,0.0,0.0,0.0,0.0,15.0
25.75,0.0,0.0,0.0,0.0,0.0,0.0,0.0,15.0
25.81,0.0,0.0,0.0,0.0,0.0,0.0,0.0,15.0
25.75,0.0,0.0,0.0,0.0,0.0,0.0,0.0,15.0
25.81,0.0,0.0,0.0,0.0,0.0,0.0,0.0,15.0
25.81,0.0,0.0,0.0,0.0,0.0,0.0,0.0,15.0
25.75,0.0,0.0,0.0,0.0,0.0,0.0,0.0,15.0
25.73,0.0,0.0,0.0,0.0,0.0,0.0,0.0,15.0
25.85,0.0,0.0,0.0,0.0,0.0,0.0,0.0,15.0
25.75,0.0,0.0,0.0,0.0,0.0,0.0,0.0,15.0
25.91,0.0,0.0,0.0,0.0,0.0,0.0,0.0,15.0
25.85,0.0,0.0,0.0,0.0,0.0,0.0,0.0,15.0
25.97,0.0,0.0,0.0,0.0,0.0,0.0,0.0,15.0
25.99,0.0,0.0,0.0,0.0,0.0,0.0,0.0,15.0
25.91,0.0,0.0,0.0,0.0,0.0,0.0,0.0,15.0
25.91,0.0,0.0,0.0,0.0,0.0,0.0,0.0,15.0
25.85,0.0,0.0,0.0,0.0,0.0,0.0,0.0,15.0
25.73,0.0,0.0,0.0,0.0,0.0,0.0,0.0,15.0
25.79,0.0,0.0,0.0,0.0,0.0,0.0,0.0,15.0
25.73,0.0,0.0,0.0,0.0,0.0,0.0,0.0,15.0
25.93,0.0,0.0,0.0,0.0,0.0,0.0,0.0,15.0
25.85,0.0,0.0,0.0,0.0,0.0,0.0,0.0,15.0
25.81,0.0,0.0,0.0,0.0,0.0,0.0,0.0,15.0
25.87,0.0,0.0,0.0,0.0,0.0,0.0,0.0,15.0
25.97,0.0,0.0,0.0,0.0,0.0,0.0,0.0,15.0
25.99,0.0,0.0,0.0,0.0,0.0,0.0,0.0,15.0
26.03,0.0,0.0,0.0,0.0,0.0,0.0,0.0,15.0
25.85,0.0,0.0,0.0,0.0,0.0,0.0,0.0,15.0
25.99,0.0,0.0,0.0,0.0,0.0,0.0,0.0,15.0
25.91,0.0,0.0,0.0,0.0,0.0,0.0,0.0,15.0
25.93,0.0,0.0,0.0,0.0,0.0,0.0,0.0,15.0
25.79,0.0,0.0,0.0,0.0,0.0,0.0,0.0,15.0
25.81,0.0,0.0,0.0,0.0,0.0,0.0,0.0,15.0
26.03,0.0,0.0,0.0,0.0,0.0,0.0,0.0,15.0
25.97,0.0,0.0,0.0,0.0,0.0,0.0,0.0,15.0
25.87,0.0,0.0,0.0,0.0,0.0,0.0,0.0,15.0
25.87,0.0,0.0,0.0,0.0,0.0,0.0,0.0,15.0
25.79,0.0,0.0,0.0,0.0,0.0,0.0,0.0,15.0
25.85,0.0,0.0,0.0,0.0,0.0,0.0,0.0,19.0
25.93,0.0,128.0,0.0,0.0,0.0,0.0,0.0,28.0
25.91,0.0,0.0,0.0,0.0,0.0,0.0,0.0,39.0
26.11,0.0,0.0,0.0,0.0,0.0,0.0,0.0,48.0
26.15,0.0,0.0,0.0,0.0,0.0,0.0,0.0,59.0
26.21,0.0,0.0,0.0,0.0,0.0,0.0,0.0,68.0
26.15,0.0,0.0,0.0,0.0,0.0,0.0,0.0,79.0
25.93,0.0,0.0,0.0,0.0,0.0,0.0,54.0,89.0
25.85,0.0,0.0,0.0,0.0,0.0,0.0,196.0,98.0
25.91,0.0,0.0,0.0,0.0,0.0,0.0,218.0,100.0
25.87,0.0,0.0,0.0,0.0,0.0,0.0,240.0,100.0
25.93,0.0,0.0,0.0,0.0,0.0,0.0,245.0,100.0
25.93,0.0,0.0,0.0,0.0,0.0,0.0,252.0,100.0
25.85,0.0,0.0,0.0,0.0,0.0,0.0,269.0,100.0
25.93,0.0,0.0,0.0,0.0,0.0,0.0,268.0,100.0
25.87,0.0,0.0,16.0,0.0,0.0,0.0,266.0,100.0
25.81,0.0,0.0,0.0,0.0,0.0,0.0,277.0,100.0
25.87,0.0,0.0,0.0,0.0,0.0,0.0,286.0,100.0
25.81,0.0,0.0,41.0,0.0,0.0,0.0,273.0,100.0
25.81,0.0,0.0,87.0,0.0,0.0,0.0,281.0,100.0
25.81,0.0,0.0,113.0,0.0,0.0,0.0,275.0,100.0
25.75,0.0,0.0,176.0,0.0,0.0,0.0,275.0,100.0
25.85,0.0,0.0,214.0,0.0,0.0,0.0,279.0,100.0
25.87,0.0,0.0,246.0,0.0,0.0,0.0,280.0,100.0
25.97,0.0,0.0,272.0,0.0,0.0,0.0,275.0,100.0
25.81,0.0,0.0,304.0,0.0,0.0,0.0,281.0,100.0
25.85,0.0,0.0,316.0,0.0,0.0,0.0,283.0,100.0
25.87,0.0,0.0,322.0,0.0,0.0,0.0,287.0,100.0
25.85,0.0,0.0,336.0,0.0,0.0,0.0,286.0,100.0
25.87,0.0,0.0,292.0,0.0,0.0,0.0,287.0,100.0
25.85,0.0,0.0,359.0,0.0,0.0,0.0,280.0,100.0
25.81,0.0,0.0,366.0,0.0,0.0,0.0,285.0,100.0
25.79,0.0,0.0,356.0,0.0,0.0,0.0,288.0,100.0
25.81,0.0,0.0,354.0,0.0,0.0,0.0,297.0,100.0
25.85,0.0,0.0,351.0,0.0,0.0,0.0,296.0,100.0
25.85,0.0,0.0,358.0,0.0,0.0,0.0,285.0,100.0
25.85,0.0,0.0,384.0,0.0,0.0,0.0,297.0,100.0
25.85,0.0,0.0,344.0,0.0,0.0,0.0,294.0,100.0
25.81,0.0,0.0,346.0,0.0,0.0,0.0,305.0,100.0
25.79,0.0,0.0,358.0,0.0,0.0,0.0,297.0,100.0
25.79,0.0,0.0,357.0,0.0,0.0,0.0,302.0,100.0
25.75,0.0,0.0,368.0,0.0,0.0,0.0,304.0,100.0
25.73,0.0,0.0,368.0,0.0,0.0,0.0,303.0,100.0
25.75,0.0,0.0,382.0,0.0,0.0,0.0,297.0,100.0
25.79,0.0,0.0,369.0,0.0,0.0,0.0,295.0,100.0
25.81,0.0,0.0,383.0,36.0,0.0,0.0,302.0,100.0
25.69,0.0,0.0,390.0,0.0,0.0,0.0,312.0,100.0
25.69,0.0,0.0,386.0,0.0,0.0,0.0,313.0,100.0
25.69,0.0,0.0,379.0,0.0,0.0,0.0,311.0,100.0
25.69,0.0,0.0,391.0,0.0,0.0,0.0,318.0,100.0
25.73,0.0,0.0,383.0,0.0,0.0,0.0,312.0,100.0
25.69,0.0,0.0,383.0,0.0,0.0,0.0,313.0,100.0
25.63,0.0,0.0,396.0,0.0,0.0,0.0,317.0,100.0
25.73,0.0,0.0,390.0,0.0,0.0,0.0,313.0,100.0
25.81,0.0,0.0,388.0,0.0,0.0,0.0,320.0,100.0
25.73,0.0,0.0,389.0,0.0,0.0,0.0,317.0,100.0
25.69,0.0,0.0,401.0,0.0,0.0,0.0,323.0,100.0
25.79,0.0,0.0,402.0,0.0,0.0,0.0,316.0,100.0
25.75,0.0,0.0,400.0,0.0,0.0,0.0,314.0,100.0
25.73,0.0,0.0,399.0,0.0,0.0,0.0,320.0,100.0
25.75,0.0,0.0,405.0,0.0,0.0,0.0,323.0,100.0
25.79,0.0,0.0,398.0,0.0,0.0,0.0,320.0,100.0
25.79,0.0,0.0,401.0,0.0,0.0,0.0,320.0,100.0
25.75,0.0,0.0,399.0,0.0,0.0,11.0,321.0,100.0
25.75,0.0,0.0,400.0,0.0,0.0,0.0,321.0,100.0
25.73,0.0,0.0,398.0,0.0,0.0,0.0,318.0,100.0
25.75,0.0,0.0,417.0,0.0,0.0,0.0,321.0,100.0
25.73,0.0,0.0,417.0,0.0,0.0,0.0,321.0,100.0
25.75,0.0,0.0,418.0,0.0,0.0,0.0,331.0,100.0
25.75,0.0,0.0,423.0,0.0,0.0,0.0,330.0,100.0
25.69,0.0,0.0,422.0,0.0,0.0,0.0,330.0,100.0
25.73,0.0,0.0,406.0,0.0,0.0,0.0,324.0,100.0
25.67,0.0,0.0,422.0,0.0,0.0,0.0,324.0,100.0
25.69,0.0,0.0,425.0,0.0,0.0,0.0,325.0,100.0
25.67,0.0,0.0,431.0,0.0,0.0,0.0,325.0,100.0
25.61,0.0,0.0,426.0,0.0,0.0,0.0,331.0,100.0
25.63,0.0,0.0,432.0,0.0,0.0,0.0,325.0,100.0
25.63,0.0,0.0,428.0,0.0,0.0,0.0,327.0,100.0
25.67,0.0,0.0,431.0,0.0,0.0,0.0,332.0,100.0
25.73,0.0,0.0,432.0,0.0,0.0,0.0,330.0,100.0
25.73,0.0,0.0,431.0,0.0,0.0,0.0,330.0,100.0
25.75,0.0,0.0,432.0,0.0,0.0,0.0,327.0,100.0
25.73,0.0,0.0,0.0,0.0,0.0,0.0,0.0,15.0
25.85,0.0,0.0,0.0,0.0,0.0,0.0,0.0,15.0
25.79,0.0,0.0,0.0,0.0,0.0,0.0,0.0,15.0
25.69,0.0,0.0,0.0,0.0,0.0,0.0,0.0,15.0
25.79,0.0,0.0,0.0,0.0,0.0,0.0,0.0,15.0
26.31,0.0,0.0,0.0,0.0,0.0,0.0,0.0,15.0
26.61,0.0,0.0,0.0,0.0,0.0,0.0,0.0,15.0
26.59,0.0,0.0,0.0,0.0,0.0,0.0,0.0,15.0
26.87,0.0,0.0,0.0,0.0,0.0,0.0,0.0,15.0
27.67,0.0,0.0,0.0,0.0,0.0,0.0,0.0,15.0
27.37,0.0,0.0,0.0,0.0,0.0,0.0,0.0,15.0
27.17,0.0,0.0,0.0,0.0,0.0,0.0,0.0,15.0
26.09,0.0,0.0,0.0,0.0,0.0,0.0,0.0,15.0
25.75,0.0,0.0,0.0,0.0,0.0,0.0,0.0,15.0
25.69,0.0,0.0,0.0,0.0,0.0,0.0,0.0,15.0
25.73,0.0,0.0,0.0,0.0,0.0,0.0,0.0,15.0
25.75,0.0,0.0,0.0,0.0,0.0,0.0,0.0,15.0
25.69,0.0,0.0,0.0,0.0,0.0,0.0,0.0,15.0
25.81,0.0,0.0,0.0,0.0,0.0,0.0,0.0,15.0
25.85,0.0,0.0,0.0,0.0,0.0,0.0,0.0,15.0
25.79,0.0,0.0,0.0,0.0,0.0,0.0,0.0,15.0
25.79,0.0,0.0,0.0,0.0,0.0,0.0,0.0,15.0
25.79,0.0,0.0,0.0,0.0,0.0,0.0,0.0,15.0
25.69,0.0,0.0,0.0,0.0,0.0,0.0,0.0,15.0
25.75,0.0,0.0,0.0,0.0,0.0,0.0,0.0,15.0
25.69,0.0,0.0,0.0,0.0,0.0,0.0,0.0,15.0
25.67,0.0,0.0,0.0,0.0,0.0,0.0,0.0,15.0
25.73,0.0,0.0,0.0,0.0,0.0,0.0,0.0,15.0
25.69,0.0,0.0,0.0,0.0,0.0,0.0,0.0,15.0
25.73,0.0,0.0,0.0,0.0,0.0,0.0,0.0,15.0
25.81,0.0,0.0,0.0,0.0,0.0,0.0,6.0,15.0
25.97,0.0,0.0,0.0,0.0,0.0,0.0,0.0,15.0
25.97,0.0,0.0,0.0,0.0,0.0,0.0,0.0,15.0
25.99,0.0,0.0,0.0,0.0,0.0,0.0,0.0,15.0
25.99,0.0,0.0,0.0,0.0,0.0,0.0,0.0,15.0
25.87,0.0,0.0,0.0,0.0,0.0,0.0,0.0,15.0
25.91,0.0,0.0,0.0,0.0,0.0,0.0,0.0,15.0
25.93,0.0,0.0,0.0,0.0,0.0,0.0,0.0,15.0
25.85,0.0,0.0,0.0,0.0,0.0,0.0,0.0,15.0
25.93,0.0,0.0,0.0,0.0,0.0,0.0,0.0,15.0
25.93,0.0,0.0,0.0,0.0,0.0,0.0,0.0,15.0
25.97,0.0,0.0,0.0,0.0,0.0,0.0,0.0,15.0
25.99,0.0,0.0,0.0,0.0,0.0,0.0,0.0,15.0
25.97,0.0,0.0,0.0,0.0,0.0,0.0,0.0,15.0
25.87,0.0,0.0,0.0,0.0,0.0,0.0,0.0,15.0
26.03,0.0,0.0,0.0,0.0,0.0,0.0,0.0,15.0
26.23,0.0,0.0,0.0,0.0,0.0,0.0,0.0,15.0
26.43,0.0,0.0,0.0,0.0,0.0,0.0,0.0,15.0
26.71,0.0,0.0,0.0,0.0,0.0,0.0,0.0,15.0
26.71,0.0,0.0,0.0,0.0,0.0,0.0,0.0,15.0
26.73,0.0,0.0,0.0,0.0,0.0,0.0,0.0,15.0
26.73,0.0,0.0,0.0,0.0,0.0,0.0,0.0,15.0
26.77,0.0,0.0,0.0,0.0,0.0,0.0,0.0,25.0
26.77,0.0,0.0,0.0,0.0,0.0,0.0,0.0,36.0
26.77,0.0,0.0,0.0,0.0,0.0,0.0,0.0,46.0
26.67,0.0,0.0,0.0,0.0,0.0,0.0,0.0,56.0
26.67,0.0,0.0,0.0,0.0,0.0,0.0,0.0,64.0
26.55,0.0,0.0,0.0,0.0,0.0,0.0,789.0,74.0
26.61,0.0,352.0,0.0,0.0,38.0,0.0,2168.0,84.0
26.59,0.0,511.0,0.0,0.0,39.0,0.0,2176.0,94.0
26.53,0.0,684.0,0.0,0.0,0.0,0.0,2179.0,100.0
26.47,0.0,688.0,0.0,0.0,0.0,0.0,2230.0,100.0
26.43,0.0,686.0,0.0,0.0,0.0,0.0,2247.0,100.0
26.47,0.0,598.0,0.0,0.0,0.0,0.0,2317.0,100.0
26.53,0.0,607.0,0.0,0.0,0.0,0.0,2321.0,100.0
26.41,0.0,615.0,0.0,0.0,0.0,0.0,2330.0,100.0
26.59,0.0,583.0,0.0,0.0,0.0,0.0,2313.0,100.0
26.53,0.0,588.0,0.0,0.0,0.0,0.0,2326.0,100.0
26.55,0.0,560.0,0.0,0.0,0.0,0.0,2340.0,100.0
26.55,0.0,560.0,0.0,0.0,0.0,0.0,2306.0,100.0
26.47,0.0,434.0,0.0,0.0,0.0,0.0,2365.0,100.0
26.59,0.0,470.0,0.0,0.0,0.0,0.0,2339.0,100.0
26.61,0.0,603.0,0.0,0.0,0.0,0.0,2168.0,100.0
26.59,0.0,667.0,0.0,0.0,0.0,0.0,2119.0,100.0
26.53,0.0,688.0,0.0,0.0,0.0,0.0,2116.0,100.0
26.55,0.0,688.0,0.0,0.0,0.0,0.0,2068.0,100.0
26.49,0.0,754.0,0.0,0.0,0.0,0.0,2005.0,100.0
26.59,0.0,784.0,0.0,0.0,0.0,0.0,1996.0,100.0
26.53,0.0,793.0,0.0,0.0,0.0,0.0,2051.0,100.0
26.49,0.0,807.0,0.0,0.0,12.0,0.0,2058.0,100.0
26.43,0.0,799.0,0.0,0.0,0.0,0.0,2079.0,100.0
26.55,0.0,809.0,0.0,0.0,0.0,0.0,2074.0,100.0
26.61,0.0,805.0,0.0,0.0,0.0,0.0,2072.0,100.0
26.55,0.0,815.0,0.0,0.0,0.0,0.0,2081.0,100.0
26.55,0.0,816.0,0.0,0.0,0.0,0.0,2085.0,100.0
26.55,0.0,816.0,0.0,0.0,0.0,0.0,2083.0,100.0
26.55,0.0,817.0,0.0,0.0,0.0,0.0,2083.0,100.0
26.55,0.0,813.0,0.0,0.0,0.0,0.0,2090.0,100.0
26.53,0.0,806.0,0.0,0.0,0.0,0.0,2092.0,100.0
26.47,0.0,807.0,0.0,0.0,16.0,0.0,2098.0,100.0
26.53,0.0,794.0,0.0,0.0,27.0,0.0,2105.0,100.0
26.43,0.0,832.0,0.0,0.0,0.0,0.0,2095.0,100.0
26.55,0.0,834.0,0.0,0.0,0.0,0.0,2126.0,100.0
26.47,0.0,822.0,0.0,0.0,0.0,0.0,2124.0,100.0
26.49,0.0,759.0,0.0,0.0,0.0,0.0,2297.0,100.0
26.47,0.0,706.0,0.0,0.0,0.0,0.0,2407.0,100.0
26.41,0.0,619.0,0.0,0.0,0.0,0.0,2511.0,100.0
26.49,0.0,607.0,0.0,0.0,0.0,0.0,2577.0,100.0
26.37,0.0,432.0,0.0,0.0,0.0,0.0,2610.0,100.0
26.49,0.0,192.0,0.0,0.0,0.0,0.0,2657.0,100.0
26.43,0.0,134.0,0.0,0.0,0.0,0.0,2687.0,100.0
26.31,0.0,80.0,0.0,0.0,0.0,0.0,2713.0,100.0
26.27,0.0,251.0,0.0,0.0,0.0,0.0,2742.0,100.0
26.23,0.0,221.0,0.0,0.0,0.0,0.0,2765.0,100.0
26.23,0.0,227.0,0.0,0.0,0.0,0.0,2772.0,100.0
26.29,0.0,208.0,0.0,0.0,0.0,0.0,2777.0,100.0
26.27,0.0,234.0,0.0,0.0,0.0,0.0,2779.0,100.0
26.17,0.0,236.0,0.0,0.0,0.0,0.0,2784.0,100.0
26.21,0.0,242.0,0.0,0.0,0.0,0.0,2777.0,100.0
26.11,0.0,249.0,0.0,0.0,0.0,0.0,2777.0,100.0
26.09,0.0,248.0,0.0,0.0,0.0,0.0,2790.0,100.0
26.15,16.0,229.0,0.0,0.0,0.0,0.0,2785.0,100.0
26.17,0.0,239.0,0.0,0.0,0.0,0.0,2794.0,100.0
26.21,0.0,246.0,0.0,0.0,0.0,0.0,2796.0,100.0
26.23,0.0,251.0,0.0,0.0,0.0,0.0,2797.0,100.0
26.21,0.0,246.0,0.0,0.0,0.0,0.0,2806.0,100.0
26.29,0.0,251.0,0.0,0.0,0.0,0.0,2807.0,100.0
26.31,0.0,253.0,0.0,0.0,0.0,0.0,2797.0,100.0
26.21,0.0,259.0,0.0,0.0,0.0,0.0,2796.0,100.0
26.29,0.0,258.0,0.0,0.0,0.0,0.0,2801.0,100.0
26.21,0.0,256.0,0.0,0.0,0.0,0.0,2804.0,100.0
26.15,0.0,263.0,0.0,0.0,0.0,0.0,2794.0,100.0
26.15,0.0,257.0,0.0,0.0,0.0,0.0,2808.0,100.0
26.11,0.0,253.0,0.0,0.0,0.0,0.0,2809.0,100.0
26.15,0.0,262.0,0.0,0.0,0.0,0.0,2805.0,100.0
26.21,0.0,256.0,0.0,0.0,0.0,0.0,2800.0,100.0
26.17,0.0,249.0,0.0,0.0,0.0,0.0,2808.0,100.0
26.15,0.0,263.0,0.0,0.0,0.0,0.0,2815.0,100.0
26.15,0.0,251.0,0.0,0.0,0.0,0.0,2816.0,100.0
26.17,0.0,263.0,0.0,0.0,0.0,0.0,2809.0,100.0
26.11,0.0,258.0,0.0,0.0,0.0,0.0,2814.0,100.0
26.09,148.0,256.0,0.0,0.0,0.0,0.0,2813.0,100.0
26.05,0.0,192.0,0.0,0.0,0.0,0.0,2820.0,100.0
26.09,0.0,263.0,0.0,0.0,0.0,0.0,2810.0,100.0
26.17,0.0,268.0,0.0,0.0,0.0,0.0,2816.0,100.0
26.11,0.0,256.0,0.0,0.0,0.0,0.0,2812.0,100.0
26.11,0.0,240.0,0.0,0.0,0.0,0.0,2819.0,100.0
26.05,0.0,256.0,0.0,0.0,0.0,0.0,2815.0,100.0
26.05,0.0,267.0,0.0,0.0,0.0,0.0,2817.0,100.0
26.09,0.0,259.0,0.0,0.0,0.0,0.0,2810.0,100.0
26.09,0.0,257.0,0.0,0.0,0.0,0.0,2811.0,100.0
26.21,0.0,291.0,0.0,0.0,0.0,0.0,2815.0,100.0
26.11,0.0,263.0,0.0,0.0,0.0,0.0,2815.0,15.0
26.17,0.0,0.0,0.0,0.0,0.0,0.0,0.0,15.0
26.21,0.0,0.0,0.0,0.0,0.0,0.0,0.0,15.0
25.75,0.0,0.0,0.0,0.0,0.0,0.0,0.0,15.0
25.63,0.0,0.0,0.0,0.0,0.0,0.0,0.0,15.0
25.63,0.0,0.0,0.0,0.0,0.0,0.0,0.0,15.0
25.61,0.0,0.0,0.0,0.0,0.0,0.0,0.0,15.0
25.61,0.0,0.0,0.0,0.0,0.0,0.0,0.0,15.0
25.59,0.0,0.0,0.0,0.0,0.0,0.0,0.0,15.0
25.61,0.0,0.0,0.0,0.0,0.0,0.0,0.0,15.0
25.75,0.0,0.0,0.0,0.0,0.0,0.0,0.0,15.0
27.31,0.0,0.0,0.0,0.0,0.0,0.0,0.0,15.0
27.25,0.0,0.0,0.0,0.0,0.0,0.0,0.0,15.0
27.29,0.0,0.0,0.0,0.0,0.0,0.0,0.0,15.0
27.05,0.0,0.0,0.0,0.0,0.0,0.0,0.0,15.0
27.31,0.0,0.0,0.0,0.0,0.0,0.0,0.0,15.0
27.03,0.0,0.0,0.0,0.0,0.0,0.0,0.0,15.0
25.73,0.0,0.0,0.0,0.0,0.0,0.0,0.0,15.0
25.69,0.0,0.0,0.0,0.0,0.0,0.0,0.0,15.0
25.67,0.0,0.0,0.0,0.0,0.0,0.0,0.0,15.0
25.67,0.0,0.0,0.0,0.0,0.0,204.0,0.0,15.0
25.61,0.0,0.0,0.0,0.0,0.0,0.0,0.0,15.0
25.61,0.0,0.0,0.0,0.0,0.0,0.0,0.0,15.0
25.63,0.0,0.0,0.0,0.0,0.0,0.0,0.0,15.0
25.59,0.0,0.0,0.0,0.0,0.0,0.0,0.0,15.0
25.55,0.0,0.0,0.0,0.0,0.0,0.0,0.0,15.0
25.59,0.0,0.0,0.0,0.0,0.0,0.0,0.0,15.0
25.47,0.0,0.0,0.0,0.0,0.0,0.0,0.0,15.0
25.55,0.0,0.0,0.0,0.0,0.0,0.0,0.0,15.0
25.67,0.0,0.0,0.0,0.0,0.0,0.0,0.0,15.0
25.61,0.0,0.0,0.0,0.0,0.0,0.0,0.0,15.0
25.67,0.0,0.0,0.0,0.0,0.0,0.0,0.0,15.0
25.61,0.0,0.0,0.0,0.0,0.0,0.0,0.0,15.0
25.61,0.0,0.0,0.0,0.0,0.0,0.0,0.0,15.0
25.63,0.0,0.0,0.0,0.0,0.0,0.0,0.0,15.0
25.63,0.0,0.0,0.0,0.0,0.0,0.0,0.0,15.0
25.67,0.0,0.0,0.0,0.0,0.0,0.0,0.0,15.0
25.63,0.0,0.0,0.0,0.0,0.0,0.0,0.0,15.0
25.69,0.0,0.0,0.0,0.0,0.0,0.0,0.0,15.0
25.59,0.0,0.0,0.0,0.0,0.0,0.0,0.0,15.0
25.61,0.0,0.0,0.0,0.0,0.0,0.0,0.0,15.0
25.59,0.0,0.0,0.0,0.0,0.0,0.0,0.0,15.0
25.69,0.0,0.0,0.0,0.0,0.0,0.0,0.0,15.0
25.85,0.0,0.0,0.0,0.0,0.0,0.0,0.0,15.0
25.85,0.0,0.0,0.0,0.0,0.0,0.0,0.0,15.0
25.73,0.0,0.0,0.0,0.0,0.0,0.0,0.0,15.0
25.67,0.0,0.0,0.0,0.0,0.0,0.0,0.0,15.0
25.61,0.0,0.0,0.0,0.0,0.0,0.0,0.0,15.0
25.69,0.0,0.0,0.0,0.0,0.0,0.0,0.0,15.0
25.81,0.0,0.0,0.0,0.0,0.0,0.0,0.0,15.0
25.97,0.0,0.0,0.0,0.0,0.0,0.0,0.0,15.0
26.03,0.0,0.0,0.0,0.0,0.0,0.0,0.0,15.0
26.17,0.0,0.0,0.0,0.0,0.0,0.0,0.0,15.0
26.53,0.0,0.0,0.0,0.0,0.0,0.0,0.0,15.0
29.19,0.0,0.0,0.0,0.0,0.0,0.0,0.0,15.0
34.21,0.0,0.0,0.0,0.0,0.0,0.0,0.0,15.0
40.97,0.0,0.0,0.0,0.0,0.0,0.0,0.0,15.0
43.77,0.0,0.0,0.0,0.0,0.0,0.0,0.0,15.0
43.49,0.0,0.0,0.0,0.0,0.0,0.0,0.0,15.0
43.01,0.0,0.0,0.0,0.0,0.0,0.0,0.0,15.0
43.07,0.0,0.0,0.0,0.0,0.0,0.0,0.0,15.0
42.71,0.0,0.0,0.0,0.0,0.0,0.0,0.0,20.0
41.93,0.0,0.0,0.0,0.0,0.0,0.0,0.0,30.0
41.93,0.0,0.0,0.0,0.0,0.0,0.0,0.0,41.0
42.73,0.0,0.0,0.0,0.0,0.0,0.0,0.0,50.0
42.59,0.0,0.0,0.0,0.0,0.0,0.0,0.0,59.0
42.45,0.0,0.0,0.0,0.0,140.0,0.0,0.0,68.0
42.23,0.0,64.0,0.0,0.0,928.0,0.0,2697.0,78.0
42.23,0.0,90.0,0.0,0.0,940.0,0.0,2767.0,88.0
41.93,0.0,176.0,0.0,0.0,602.0,0.0,2726.0,98.0
41.73,0.0,192.0,0.0,0.0,528.0,0.0,2759.0,100.0
41.71,0.0,193.0,0.0,0.0,559.0,0.0,2786.0,100.0
41.73,0.0,160.0,0.0,0.0,490.0,0.0,2761.0,100.0
41.67,0.0,123.0,0.0,0.0,458.0,0.0,2788.0,100.0
41.71,0.0,113.0,0.0,0.0,465.0,0.0,2799.0,100.0
41.65,0.0,102.0,0.0,0.0,503.0,0.0,2811.0,100.0
41.67,0.0,108.0,0.0,0.0,474.0,0.0,2815.0,100.0
41.65,0.0,113.0,0.0,0.0,482.0,0.0,2816.0,100.0
41.73,0.0,103.0,0.0,0.0,487.0,0.0,2813.0,100.0
41.73,0.0,115.0,0.0,0.0,485.0,0.0,2813.0,100.0
41.73,0.0,105.0,0.0,0.0,453.0,0.0,2815.0,100.0
41.75,0.0,117.0,0.0,0.0,453.0,0.0,2806.0,100.0
41.75,0.0,117.0,0.0,0.0,483.0,0.0,2794.0,100.0
41.81,0.0,160.0,0.0,0.0,511.0,0.0,2625.0,100.0
41.83,0.0,176.0,0.0,0.0,587.0,0.0,2567.0,100.0
41.77,0.0,195.0,0.0,0.0,597.0,0.0,2506.0,100.0
41.83,0.0,204.0,0.0,0.0,747.0,0.0,2446.0,100.0
41.95,0.0,225.0,0.0,0.0,864.0,0.0,2452.0,100.0
42.03,0.0,233.0,0.0,0.0,888.0,0.0,2520.0,100.0
41.97,0.0,208.0,0.0,0.0,898.0,0.0,2492.0,100.0
41.97,0.0,237.0,0.0,0.0,893.0,0.0,2530.0,100.0
42.01,0.0,223.0,0.0,0.0,890.0,0.0,2463.0,100.0
42.03,0.0,210.0,0.0,0.0,791.0,0.0,2551.0,100.0
42.03,0.0,208.0,0.0,0.0,675.0,0.0,2535.0,100.0
42.03,0.0,200.0,0.0,0.0,656.0,0.0,2551.0,100.0
42.03,0.0,0.0,0.0,0.0,550.0,0.0,2598.0,100.0
41.95,0.0,338.0,0.0,0.0,659.0,0.0,2592.0,100.0
41.97,0.0,204.0,0.0,0.0,707.0,0.0,2562.0,100.0
41.97,0.0,174.0,0.0,0.0,576.0,0.0,2646.0,100.0
41.97,0.0,149.0,0.0,0.0,497.0,0.0,2702.0,100.0
42.01,0.0,113.0,0.0,0.0,491.0,0.0,2775.0,100.0
42.01,0.0,80.0,0.0,0.0,480.0,0.0,2831.0,100.0
42.09,0.0,47.0,0.0,0.0,490.0,0.0,2846.0,100.0
41.91,0.0,48.0,0.0,0.0,455.0,0.0,2922.0,100.0
41.87,0.0,54.0,0.0,0.0,478.0,0.0,2923.0,100.0
41.85,0.0,50.0,0.0,0.0,496.0,0.0,2933.0,100.0
41.71,0.0,0.0,0.0,0.0,461.0,0.0,2952.0,100.0
41.81,0.0,51.0,0.0,0.0,493.0,0.0,2965.0,100.0
41.73,0.0,64.0,0.0,0.0,522.0,0.0,2960.0,100.0
41.81,0.0,62.0,0.0,0.0,496.0,0.0,2957.0,100.0
41.83,0.0,62.0,0.0,0.0,509.0,0.0,2968.0,100.0
41.83,0.0,51.0,0.0,0.0,523.0,0.0,2968.0,100.0
41.85,0.0,48.0,0.0,0.0,511.0,0.0,2967.0,100.0
41.91,0.0,55.0,0.0,0.0,522.0,0.0,2979.0,100.0
41.87,0.0,58.0,0.0,0.0,525.0,0.0,2984.0,100.0
41.95,0.0,55.0,0.0,0.0,530.0,0.0,2996.0,100.0
41.97,0.0,160.0,0.0,0.0,526.0,0.0,2996.0,100.0
41.95,0.0,58.0,0.0,0.0,528.0,0.0,2984.0,100.0
41.95,0.0,60.0,0.0,0.0,524.0,0.0,2995.0,100.0
42.03,0.0,58.0,0.0,0.0,528.0,0.0,2984.0,100.0
42.11,0.0,0.0,0.0,0.0,528.0,0.0,3001.0,100.0
42.19,0.0,50.0,0.0,0.0,527.0,0.0,2996.0,100.0
42.21,0.0,57.0,0.0,0.0,523.0,0.0,2997.0,100.0
42.21,0.0,0.0,0.0,0.0,527.0,0.0,3004.0,100.0
42.19,0.0,59.0,0.0,0.0,527.0,0.0,3013.0,100.0
42.13,0.0,53.0,0.0,0.0,528.0,0.0,2999.0,100.0
42.13,0.0,56.0,0.0,0.0,524.0,0.0,3014.0,100.0
42.05,0.0,10.0,0.0,0.0,542.0,0.0,3005.0,100.0
42.05,0.0,64.0,0.0,0.0,492.0,0.0,3022.0,100.0
42.05,0.0,64.0,0.0,0.0,528.0,0.0,3005.0,100.0
41.97,0.0,64.0,0.0,0.0,532.0,0.0,3011.0,100.0
42.03,0.0,59.0,0.0,0.0,545.0,0.0,3024.0,100.0
42.05,0.0,64.0,0.0,0.0,531.0,0.0,3023.0,100.0
42.09,0.0,64.0,0.0,0.0,535.0,0.0,3029.0,100.0
42.09,0.0,62.0,0.0,0.0,528.0,0.0,3018.0,100.0
42.15,0.0,64.0,0.0,0.0,624.0,0.0,3021.0,100.0
42.05,0.0,60.0,0.0,0.0,535.0,0.0,3012.0,100.0
41.97,0.0,65.0,0.0,0.0,523.0,0.0,3012.0,100.0
41.97,0.0,60.0,0.0,0.0,540.0,0.0,3014.0,100.0
41.87,0.0,64.0,0.0,0.0,528.0,0.0,3032.0,100.0
41.93,0.0,49.0,0.0,0.0,530.0,0.0,3023.0,100.0
41.87,0.0,53.0,0.0,0.0,533.0,0.0,3023.0,100.0
41.97,0.0,54.0,0.0,0.0,535.0,0.0,3031.0,100.0
41.93,0.0,59.0,0.0,0.0,528.0,0.0,3024.0,100.0
41.97,0.0,55.0,0.0,0.0,530.0,0.0,3030.0,100.0
41.81,0.0,0.0,0.0,0.0,531.0,0.0,3022.0,100.0
41.83,0.0,64.0,0.0,0.0,537.0,0.0,3037.0,100.0
41.75,0.0,61.0,0.0,0.0,543.0,0.0,3034.0,15.0
41.77,0.0,0.0,0.0,0.0,0.0,0.0,540.0,15.0
26.23,0.0,0.0,0.0,0.0,0.0,0.0,0.0,15.0
26.67,0.0,0.0,0.0,0.0,0.0,0.0,0.0,15.0
26.35,0.0,0.0,0.0,0.0,0.0,0.0,0.0,15.0
26.27,0.0,0.0,0.0,0.0,0.0,0.0,0.0,15.0
26.29,0.0,0.0,0.0,0.0,0.0,0.0,0.0,15.0
26.53,0.0,0.0,0.0,0.0,0.0,0.0,0.0,15.0
26.73,0.0,0.0,0.0,0.0,0.0,0.0,0.0,15.0
26.83,0.0,0.0,0.0,0.0,0.0,0.0,0.0,15.0
27.41,0.0,0.0,0.0,0.0,0.0,0.0,0.0,15.0
26.77,0.0,0.0,0.0,0.0,0.0,0.0,0.0,15.0
26.17,0.0,0.0,0.0,0.0,0.0,0.0,0.0,15.0
26.09,0.0,0.0,0.0,0.0,0.0,0.0,0.0,15.0
26.03,0.0,0.0,0.0,0.0,0.0,0.0,0.0,15.0
26.05,0.0,0.0,0.0,0.0,0.0,0.0,0.0,15.0
26.09,0.0,0.0,0.0,0.0,0.0,0.0,0.0,15.0
26.11,0.0,0.0,0.0,0.0,0.0,0.0,0.0,15.0
26.05,0.0,0.0,0.0,0.0,0.0,0.0,0.0,15.0
26.05,0.0,0.0,0.0,0.0,0.0,0.0,0.0,15.0
26.15,0.0,0.0,0.0,0.0,0.0,0.0,0.0,15.0
26.17,0.0,0.0,0.0,0.0,0.0,0.0,0.0,15.0
26.15,0.0,0.0,0.0,0.0,0.0,0.0,0.0,15.0
26.21,0.0,0.0,0.0,0.0,0.0,0.0,0.0,15.0
26.23,0.0,0.0,0.0,0.0,0.0,0.0,0.0,15.0
26.23,0.0,0.0,0.0,0.0,0.0,0.0,0.0,15.0
26.21,0.0,0.0,0.0,0.0,0.0,0.0,0.0,15.0
26.23,0.0,0.0,0.0,0.0,0.0,0.0,0.0,15.0
26.35,0.0,0.0,0.0,0.0,0.0,0.0,0.0,15.0
26.31,0.0,0.0,0.0,0.0,0.0,0.0,0.0,15.0
26.31,0.0,0.0,0.0,0.0,0.0,0.0,0.0,15.0
26.35,0.0,0.0,0.0,0.0,0.0,0.0,0.0,15.0
26.35,0.0,0.0,0.0,0.0,0.0,0.0,0.0,15.0
26.35,0.0,0.0,0.0,0.0,0.0,0.0,0.0,15.0
26.37,0.0,0.0,32.0,0.0,0.0,0.0,0.0,15.0
26.31,0.0,0.0,0.0,0.0,0.0,0.0,0.0,15.0
26.31,0.0,0.0,0.0,0.0,0.0,0.0,0.0,15.0
26.35,0.0,0.0,0.0,0.0,0.0,0.0,0.0,15.0
26.27,0.0,0.0,0.0,0.0,0.0,0.0,0.0,15.0
26.31,0.0,0.0,0.0,0.0,0.0,0.0,0.0,15.0
26.27,0.0,0.0,0.0,0.0,0.0,0.0,0.0,15.0
26.27,0.0,0.0,0.0,0.0,0.0,0.0,0.0,15.0
26.31,0.0,0.0,0.0,0.0,0.0,0.0,0.0,15.0
26.31,0.0,0.0,0.0,0.0,0.0,0.0,0.0,15.0
26.21,0.0,0.0,0.0,0.0,0.0,0.0,0.0,15.0
26.27,64.0,0.0,0.0,0.0,0.0,0.0,0.0,15.0
26.31,0.0,0.0,0.0,0.0,0.0,0.0,0.0,15.0
26.21,0.0,0.0,0.0,0.0,0.0,0.0,0.0,15.0
26.17,0.0,0.0,0.0,0.0,0.0,0.0,0.0,15.0
26.21,0.0,0.0,0.0,0.0,0.0,0.0,0.0,15.0
26.21,0.0,0.0,0.0,0.0,0.0,0.0,0.0,15.0
26.27,0.0,0.0,0.0,0.0,0.0,0.0,0.0,15.0
26.41,0.0,0.0,0.0,0.0,0.0,0.0,0.0,15.0
26.87,0.0,0.0,0.0,0.0,0.0,0.0,0.0,15.0
27.37,0.0,0.0,0.0,0.0,0.0,0.0,0.0,15.0
27.35,0.0,0.0,0.0,0.0,0.0,0.0,0.0,15.0
27.55,0.0,0.0,0.0,0.0,0.0,0.0,0.0,19.0
27.23,0.0,0.0,0.0,0.0,0.0,0.0,0.0,28.0
27.41,0.0,0.0,0.0,0.0,0.0,0.0,0.0,38.0
27.35,0.0,0.0,0.0,0.0,0.0,0.0,0.0,47.0
27.41,0.0,0.0,0.0,0.0,0.0,0.0,0.0,57.0
27.49,0.0,0.0,0.0,0.0,0.0,0.0,0.0,67.0
27.23,0.0,0.0,0.0,0.0,0.0,0.0,190.0,78.0
27.25,0.0,0.0,0.0,0.0,0.0,0.0,1996.0,87.0
27.23,0.0,0.0,0.0,0.0,0.0,0.0,2076.0,96.0
27.23,0.0,0.0,0.0,0.0,0.0,0.0,2143.0,100.0
27.11,0.0,0.0,0.0,0.0,0.0,0.0,2206.0,100.0
27.09,0.0,0.0,0.0,0.0,0.0,0.0,2217.0,100.0
27.11,0.0,0.0,0.0,0.0,0.0,0.0,2224.0,100.0
27.09,0.0,0.0,0.0,0.0,0.0,0.0,2223.0,100.0
27.09,0.0,16.0,0.0,0.0,0.0,0.0,2248.0,100.0
27.09,0.0,0.0,0.0,0.0,0.0,0.0,2260.0,100.0
27.03,0.0,0.0,0.0,0.0,0.0,0.0,2258.0,100.0
27.09,0.0,0.0,0.0,0.0,0.0,0.0,2379.0,100.0
27.05,0.0,0.0,0.0,0.0,0.0,0.0,2377.0,100.0
27.05,0.0,0.0,0.0,0.0,0.0,0.0,2385.0,100.0
27.15,0.0,0.0,0.0,0.0,0.0,0.0,2398.0,100.0
27.09,0.0,0.0,0.0,0.0,0.0,0.0,2399.0,100.0
27.05,0.0,0.0,0.0,0.0,0.0,0.0,2398.0,100.0
27.05,0.0,0.0,0.0,0.0,0.0,0.0,2408.0,100.0
27.11,0.0,0.0,0.0,0.0,0.0,0.0,2413.0,100.0
27.03,0.0,0.0,0.0,0.0,0.0,0.0,2413.0,100.0
26.99,0.0,0.0,0.0,0.0,0.0,0.0,2409.0,100.0
26.99,0.0,0.0,0.0,0.0,0.0,0.0,2417.0,100.0
27.03,0.0,0.0,0.0,0.0,0.0,0.0,2415.0,100.0
27.03,0.0,0.0,0.0,0.0,0.0,0.0,2427.0,100.0
26.97,0.0,0.0,0.0,0.0,0.0,0.0,2435.0,100.0
26.91,0.0,0.0,0.0,0.0,0.0,0.0,2435.0,100.0
26.99,0.0,0.0,0.0,0.0,0.0,0.0,2439.0,100.0
26.93,0.0,0.0,0.0,0.0,0.0,0.0,2427.0,100.0
26.99,0.0,0.0,0.0,0.0,0.0,0.0,2452.0,100.0
27.09,0.0,0.0,0.0,0.0,0.0,0.0,2442.0,100.0
27.05,0.0,0.0,0.0,0.0,0.0,0.0,2441.0,100.0
27.09,0.0,0.0,0.0,0.0,0.0,0.0,2447.0,100.0
27.05,0.0,0.0,0.0,0.0,0.0,0.0,2453.0,100.0
27.09,0.0,0.0,0.0,0.0,0.0,0.0,2461.0,100.0
27.09,0.0,0.0,0.0,0.0,0.0,0.0,2452.0,100.0
27.05,0.0,0.0,0.0,0.0,0.0,0.0,2454.0,100.0
27.03,0.0,0.0,0.0,0.0,0.0,0.0,2464.0,100.0
26.99,0.0,0.0,0.0,0.0,0.0,0.0,2461.0,100.0
26.97,0.0,0.0,0.0,0.0,0.0,0.0,2455.0,100.0
26.97,0.0,0.0,0.0,0.0,0.0,0.0,2462.0,100.0
26.99,0.0,0.0,0.0,0.0,0.0,0.0,2458.0,100.0
26.99,0.0,0.0,0.0,0.0,0.0,0.0,2459.0,100.0
26.99,0.0,0.0,0.0,0.0,0.0,0.0,2471.0,100.0
26.91,0.0,0.0,0.0,0.0,0.0,0.0,2479.0,100.0
26.91,0.0,0.0,0.0,0.0,0.0,0.0,2478.0,100.0
26.91,0.0,0.0,0.0,0.0,0.0,0.0,2475.0,100.0
26.87,0.0,0.0,0.0,0.0,0.0,0.0,2475.0,100.0
26.85,0.0,0.0,0.0,0.0,0.0,0.0,2485.0,100.0
26.83,0.0,0.0,0.0,0.0,0.0,0.0,2486.0,100.0
26.83,0.0,0.0,0.0,0.0,0.0,0.0,2482.0,100.0
26.83,0.0,0.0,0.0,0.0,0.0,0.0,2486.0,100.0
26.83,0.0,0.0,0.0,0.0,0.0,0.0,2484.0,100.0
26.79,0.0,0.0,0.0,0.0,0.0,0.0,2481.0,100.0
26.85,0.0,0.0,0.0,0.0,0.0,0.0,2490.0,100.0
26.85,0.0,0.0,0.0,0.0,0.0,0.0,2488.0,100.0
26.85,0.0,0.0,0.0,0.0,0.0,0.0,2487.0,100.0
26.83,0.0,0.0,0.0,0.0,0.0,0.0,2495.0,100.0
26.79,0.0,0.0,0.0,0.0,0.0,0.0,2502.0,100.0
26.73,0.0,0.0,0.0,0.0,0.0,0.0,2489.0,100.0
26.77,0.0,0.0,0.0,0.0,0.0,0.0,2490.0,100.0
26.77,0.0,0.0,0.0,0.0,0.0,0.0,2496.0,100.0
26.67,0.0,0.0,0.0,0.0,0.0,0.0,2490.0,100.0
26.71,0.0,0.0,0.0,0.0,0.0,0.0,2497.0,100.0
26.65,0.0,0.0,0.0,0.0,0.0,0.0,2494.0,100.0
26.67,0.0,0.0,0.0,0.0,0.0,0.0,2487.0,100.0
26.65,0.0,0.0,0.0,0.0,0.0,0.0,2488.0,100.0
26.67,0.0,0.0,0.0,0.0,0.0,0.0,2483.0,100.0
26.61,0.0,0.0,0.0,0.0,0.0,0.0,2487.0,100.0
26.55,0.0,0.0,0.0,0.0,0.0,0.0,2492.0,100.0
26.61,0.0,0.0,0.0,0.0,0.0,0.0,2484.0,100.0
26.67,0.0,0.0,0.0,0.0,0.0,0.0,2489.0,100.0
26.65,0.0,0.0,0.0,0.0,0.0,0.0,2486.0,100.0
26.59,0.0,0.0,0.0,0.0,0.0,0.0,2486.0,100.0
26.55,0.0,0.0,0.0,0.0,0.0,0.0,2495.0,100.0
26.55,0.0,0.0,0.0,0.0,0.0,0.0,2486.0,100.0
26.61,0.0,0.0,0.0,0.0,0.0,0.0,2485.0,100.0
26.67,0.0,0.0,0.0,0.0,0.0,0.0,2489.0,100.0
26.67,0.0,0.0,0.0,0.0,0.0,0.0,2489.0,100.0
26.65,0.0,0.0,0.0,0.0,0.0,0.0,2484.0,100.0
26.61,0.0,0.0,0.0,0.0,0.0,0.0,2489.0,100.0
26.49,0.0,0.0,0.0,0.0,0.0,0.0,2489.0,100.0
26.67,0.0,0.0,0.0,0.0,0.0,0.0,2486.0,100.0
26.55,0.0,0.0,0.0,0.0,0.0,0.0,2493.0,100.0
26.65,0.0,0.0,0.0,0.0,0.0,0.0,1534.0,15.0
26.61,0.0,0.0,0.0,0.0,0.0,0.0,0.0,15.0
26.09,0.0,0.0,0.0,0.0,0.0,0.0,0.0,15.0
25.73,0.0,0.0,0.0,0.0,0.0,0.0,0.0,15.0
25.75,0.0,0.0,0.0,0.0,0.0,0.0,0.0,15.0
25.67,0.0,0.0,0.0,0.0,0.0,0.0,0.0,15.0
25.67,0.0,0.0,0.0,0.0,0.0,0.0,0.0,15.0
25.69,0.0,0.0,0.0,0.0,0.0,0.0,0.0,15.0
25.75,0.0,0.0,0.0,0.0,0.0,0.0,0.0,15.0
25.79,0.0,0.0,0.0,0.0,0.0,0.0,0.0,15.0
25.81,0.0,0.0,0.0,0.0,0.0,0.0,0.0,15.0
25.85,0.0,0.0,0.0,0.0,0.0,0.0,0.0,15.0
25.85,0.0,0.0,0.0,0.0,0.0,0.0,0.0,15.0
25.93,0.0,0.0,0.0,0.0,0.0,0.0,0.0,15.0
26.09,0.0,0.0,0.0,0.0,0.0,0.0,0.0,15.0
25.99,0.0,0.0,0.0,0.0,0.0,0.0,0.0,15.0
26.83,0.0,0.0,0.0,0.0,0.0,0.0,0.0,15.0
26.67,0.0,0.0,0.0,0.0,0.0,0.0,0.0,15.0
26.65,0.0,0.0,0.0,0.0,0.0,0.0,0.0,15.0
26.65,0.0,0.0,0.0,0.0,0.0,0.0,0.0,15.0
26.93,0.0,0.0,0.0,0.0,0.0,0.0,0.0,15.0
27.11,0.0,0.0,0.0,0.0,0.0,0.0,0.0,15.0
26.71,0.0,0.0,0.0,0.0,0.0,0.0,0.0,15.0
26.17,0.0,0.0,0.0,0.0,0.0,0.0,0.0,15.0
26.15,0.0,0.0,0.0,0.0,0.0,0.0,0.0,15.0
26.15,0.0,0.0,0.0,0.0,0.0,0.0,0.0,15.0
26.11,0.0,0.0,0.0,0.0,0.0,0.0,0.0,15.0
26.05,0.0,0.0,0.0,0.0,0.0,0.0,0.0,15.0
25.97,0.0,0.0,0.0,0.0,0.0,0.0,0.0,15.0
26.05,0.0,0.0,0.0,0.0,0.0,0.0,0.0,15.0
26.03,0.0,0.0,0.0,0.0,0.0,0.0,0.0,15.0
26.03,0.0,0.0,0.0,0.0,0.0,0.0,0.0,15.0
26.03,0.0,0.0,0.0,0.0,0.0,0.0,0.0,15.0
26.05,0.0,0.0,0.0,0.0,0.0,0.0,0.0,15.0
26.11,0.0,0.0,0.0,0.0,0.0,0.0,0.0,15.0
26.05,0.0,0.0,0.0,0.0,0.0,0.0,0.0,15.0
26.05,0.0,0.0,0.0,0.0,0.0,0.0,0.0,15.0
26.09,0.0,0.0,0.0,0.0,0.0,0.0,0.0,15.0
26.05,0.0,0.0,0.0,0.0,0.0,0.0,0.0,15.0
26.05,0.0,0.0,0.0,0.0,0.0,0.0,0.0,15.0
25.93,0.0,0.0,0.0,0.0,0.0,0.0,0.0,15.0
25.73,0.0,0.0,0.0,0.0,0.0,0.0,0.0,15.0
25.73,0.0,0.0,0.0,0.0,0.0,0.0,0.0,15.0
25.69,0.0,0.0,0.0,0.0,0.0,0.0,0.0,15.0
25.81,0.0,0.0,0.0,0.0,0.0,0.0,0.0,15.0
25.87,0.0,0.0,0.0,0.0,0.0,0.0,0.0,15.0
25.81,0.0,0.0,0.0,0.0,0.0,0.0,0.0,15.0
25.85,0.0,0.0,0.0,0.0,0.0,0.0,0.0,15.0
25.87,0.0,0.0,0.0,0.0,0.0,0.0,0.0,15.0
25.79,0.0,0.0,0.0,0.0,0.0,0.0,0.0,15.0
25.85,0.0,0.0,0.0,0.0,0.0,0.0,0.0,15.0
25.99,0.0,0.0,0.0,0.0,0.0,0.0,0.0,15.0
26.09,0.0,0.0,0.0,0.0,0.0,0.0,0.0,15.0
26.09,0.0,0.0,0.0,0.0,0.0,0.0,0.0,15.0
26.05,0.0,0.0,0.0,0.0,0.0,0.0,0.0,15.0
26.05,0.0,0.0,0.0,0.0,0.0,0.0,0.0,15.0
26.15,0.0,0.0,0.0,0.0,0.0,0.0,0.0,15.0
26.09,0.0,0.0,0.0,0.0,0.0,0.0,0.0,15.0
