tempMLX,FSR_A1,FSR_A2,FSR_A3,FSR_B1,FSR_B2,FSR_B3,FSR_C,porcAper
0.0,0.0,0.0,0.0,0.0,0.0,0.0,0.0,15.0
0.0,0.0,0.0,0.0,0.0,0.0,0.0,0.0,15.0
25.85,0.0,0.0,0.0,0.0,0.0,0.0,0.0,15.0
25.85,0.0,0.0,0.0,0.0,0.0,0.0,0.0,15.0
25.79,0.0,0.0,0.0,0.0,0.0,0.0,0.0,15.0
25.81,0.0,0.0,0.0,0.0,0.0,0.0,0.0,15.0
25.75,0.0,0.0,0.0,0.0,0.0,0.0,0.0,15.0
25.81,0.0,0.0,0.0,0.0,0.0,0.0,0.0,15.0
25.85,0.0,0.0,0.0,0.0,0.0,0.0,0.0,15.0
25.79,0.0,0.0,0.0,0.0,0.0,0.0,0.0,15.0
25.73,0.0,0.0,0.0,0.0,0.0,0.0,0.0,15.0
25.85,0.0,0.0,0.0,0.0,0.0,0.0,0.0,15.0
25.79,0.0,0.0,0.0,0.0,0.0,0.0,2.0,15.0
25.79,0.0,0.0,0.0,0.0,0.0,0.0,0.0,15.0
25.81,0.0,0.0,0.0,0.0,0.0,0.0,0.0,15.0
25.79,0.0,0.0,0.0,0.0,0.0,0.0,0.0,15.0
25.79,0.0,0.0,0.0,0.0,0.0,0.0,0.0,15.0
25.79,0.0,0.0,0.0,0.0,0.0,0.0,0.0,15.0
25.79,0.0,0.0,0.0,0.0,0.0,0.0,0.0,15.0
25.79,0.0,0.0,0.0,0.0,0.0,0.0,0.0,15.0
25.81,0.0,0.0,0.0,0.0,0.0,0.0,0.0,15.0
25.75,0.0,0.0,0.0,0.0,0.0,0.0,0.0,15.0
25.81,0.0,0.0,0.0,0.0,0.0,0.0,0.0,15.0
25.73,0.0,0.0,0.0,0.0,0.0,0.0,0.0,15.0
25.73,0.0,0.0,0.0,0.0,0.0,0.0,0.0,15.0
25.69,0.0,0.0,0.0,0.0,0.0,0.0,0.0,15.0
25.73,0.0,0.0,0.0,0.0,0.0,0.0,0.0,15.0
25.79,0.0,0.0,0.0,0.0,0.0,0.0,0.0,15.0
25.73,0.0,0.0,0.0,0.0,0.0,0.0,0.0,15.0
25.67,0.0,0.0,0.0,0.0,0.0,0.0,0.0,15.0
25.75,0.0,0.0,0.0,0.0,0.0,0.0,0.0,15.0
25.67,0.0,0.0,0.0,0.0,0.0,0.0,0.0,15.0
25.61,0.0,0.0,0.0,0.0,0.0,0.0,0.0,15.0
25.61,0.0,0.0,0.0,0.0,0.0,0.0,0.0,15.0
25.67,0.0,0.0,0.0,0.0,0.0,0.0,0.0,15.0
25.63,0.0,0.0,0.0,0.0,0.0,0.0,0.0,15.0
25.69,0.0,0.0,0.0,0.0,0.0,0.0,0.0,15.0
25.63,0.0,0.0,0.0,0.0,0.0,0.0,0.0,15.0
25.63,0.0,0.0,0.0,0.0,0.0,0.0,0.0,15.0
25.67,0.0,0.0,0.0,0.0,0.0,0.0,0.0,15.0
25.63,0.0,0.0,0.0,0.0,0.0,0.0,0.0,15.0
25.59,0.0,0.0,0.0,0.0,0.0,0.0,0.0,15.0
25.59,0.0,0.0,0.0,0.0,0.0,0.0,0.0,15.0
25.59,0.0,0.0,0.0,0.0,0.0,0.0,0.0,15.0
25.59,0.0,0.0,0.0,0.0,0.0,0.0,0.0,15.0
25.55,0.0,0.0,0.0,0.0,0.0,0.0,0.0,15.0
25.59,0.0,0.0,0.0,0.0,0.0,0.0,0.0,15.0
25.63,0.0,0.0,0.0,0.0,0.0,0.0,0.0,15.0
25.59,0.0,0.0,0.0,0.0,0.0,0.0,0.0,15.0
25.59,0.0,0.0,0.0,0.0,0.0,0.0,0.0,15.0
25.63,0.0,0.0,0.0,0.0,0.0,0.0,0.0,15.0
25.59,0.0,0.0,0.0,0.0,0.0,0.0,0.0,15.0
25.61,0.0,0.0,0.0,0.0,0.0,0.0,0.0,15.0
25.63,0.0,0.0,0.0,0.0,0.0,0.0,0.0,15.0
25.63,0.0,0.0,0.0,0.0,0.0,0.0,0.0,15.0
25.63,0.0,0.0,0.0,0.0,0.0,0.0,0.0,15.0
25.61,0.0,0.0,0.0,0.0,0.0,0.0,0.0,15.0
25.67,0.0,0.0,0.0,0.0,0.0,0.0,0.0,15.0
25.63,0.0,0.0,0.0,0.0,0.0,0.0,0.0,15.0
25.59,0.0,0.0,0.0,0.0,0.0,0.0,0.0,15.0
25.61,0.0,0.0,0.0,0.0,0.0,0.0,0.0,15.0
25.61,0.0,0.0,0.0,0.0,0.0,0.0,0.0,15.0
25.59,0.0,0.0,0.0,0.0,0.0,0.0,0.0,15.0
25.55,0.0,0.0,0.0,0.0,0.0,0.0,0.0,15.0
25.61,0.0,0.0,0.0,0.0,0.0,0.0,0.0,15.0
25.55,0.0,0.0,0.0,0.0,0.0,0.0,0.0,15.0
25.59,0.0,0.0,0.0,0.0,0.0,0.0,0.0,15.0
25.61,0.0,0.0,0.0,0.0,0.0,0.0,0.0,15.0
25.55,0.0,0.0,0.0,0.0,0.0,0.0,0.0,15.0
25.61,0.0,0.0,0.0,0.0,0.0,0.0,0.0,15.0
25.55,0.0,0.0,0.0,0.0,0.0,0.0,0.0,15.0
25.47,0.0,0.0,0.0,0.0,0.0,0.0,0.0,15.0
25.53,0.0,0.0,0.0,0.0,0.0,0.0,0.0,15.0
25.49,0.0,0.0,0.0,0.0,0.0,0.0,0.0,15.0
25.43,0.0,0.0,0.0,0.0,0.0,0.0,0.0,15.0
25.47,0.0,0.0,0.0,0.0,0.0,0.0,0.0,15.0
25.47,0.0,0.0,0.0,0.0,0.0,0.0,0.0,15.0
25.49,0.0,0.0,0.0,0.0,0.0,0.0,0.0,15.0
25.47,0.0,0.0,0.0,0.0,0.0,0.0,0.0,15.0
25.47,0.0,0.0,0.0,0.0,0.0,0.0,0.0,15.0
25.47,0.0,0.0,0.0,0.0,0.0,0.0,0.0,15.0
25.43,0.0,0.0,0.0,0.0,0.0,0.0,0.0,15.0
25.43,0.0,0.0,0.0,0.0,0.0,0.0,0.0,15.0
25.41,0.0,0.0,0.0,0.0,0.0,0.0,0.0,15.0
25.35,0.0,0.0,0.0,0.0,0.0,0.0,0.0,15.0
25.41,0.0,0.0,0.0,0.0,0.0,0.0,0.0,15.0
25.31,0.0,0.0,0.0,0.0,0.0,0.0,0.0,15.0
25.35,0.0,0.0,0.0,0.0,0.0,0.0,0.0,15.0
25.35,0.0,0.0,0.0,0.0,336.0,0.0,0.0,15.0
25.37,0.0,0.0,0.0,0.0,0.0,0.0,0.0,15.0
25.41,0.0,0.0,0.0,0.0,0.0,0.0,0.0,15.0
25.41,0.0,0.0,0.0,0.0,0.0,0.0,0.0,15.0
25.43,0.0,0.0,0.0,0.0,0.0,0.0,0.0,15.0
25.49,0.0,0.0,0.0,0.0,0.0,0.0,0.0,15.0
25.43,0.0,0.0,0.0,0.0,0.0,0.0,0.0,15.0
25.47,0.0,0.0,0.0,0.0,0.0,0.0,0.0,15.0
25.43,0.0,0.0,0.0,0.0,0.0,0.0,0.0,15.0
25.47,0.0,0.0,0.0,0.0,0.0,0.0,0.0,15.0
25.47,0.0,0.0,0.0,0.0,0.0,0.0,0.0,15.0
25.43,0.0,0.0,0.0,0.0,0.0,0.0,0.0,15.0
25.41,0.0,0.0,0.0,0.0,0.0,0.0,0.0,15.0
25.41,0.0,0.0,0.0,0.0,0.0,0.0,0.0,15.0
25.43,0.0,0.0,0.0,0.0,0.0,0.0,0.0,15.0
25.53,0.0,0.0,0.0,0.0,0.0,0.0,0.0,15.0
25.55,0.0,0.0,0.0,0.0,0.0,0.0,0.0,15.0
25.49,0.0,0.0,0.0,0.0,0.0,0.0,0.0,15.0
25.53,0.0,0.0,0.0,0.0,0.0,0.0,0.0,15.0
25.49,0.0,0.0,0.0,0.0,0.0,0.0,0.0,15.0
25.53,0.0,0.0,0.0,0.0,0.0,0.0,0.0,15.0
25.49,0.0,0.0,0.0,0.0,0.0,0.0,0.0,15.0
25.59,0.0,0.0,0.0,0.0,0.0,0.0,0.0,15.0
25.43,0.0,0.0,0.0,0.0,0.0,0.0,0.0,15.0
25.47,0.0,0.0,0.0,0.0,0.0,0.0,0.0,15.0
25.59,0.0,0.0,0.0,0.0,0.0,0.0,0.0,15.0
25.59,0.0,0.0,0.0,0.0,0.0,0.0,0.0,15.0
25.67,0.0,0.0,0.0,0.0,0.0,0.0,0.0,15.0
25.75,0.0,0.0,0.0,0.0,0.0,0.0,0.0,15.0
25.73,0.0,0.0,0.0,0.0,0.0,0.0,0.0,15.0
25.73,0.0,0.0,0.0,0.0,0.0,0.0,0.0,15.0
25.73,0.0,0.0,0.0,0.0,0.0,0.0,0.0,15.0
25.75,0.0,0.0,0.0,0.0,0.0,0.0,0.0,15.0
25.75,0.0,0.0,0.0,0.0,0.0,0.0,0.0,15.0
25.75,0.0,0.0,0.0,0.0,0.0,0.0,0.0,15.0
25.75,0.0,0.0,0.0,0.0,0.0,0.0,0.0,15.0
25.73,0.0,0.0,0.0,0.0,0.0,0.0,0.0,15.0
25.69,0.0,0.0,0.0,0.0,0.0,0.0,0.0,15.0
25.73,0.0,0.0,0.0,0.0,0.0,0.0,0.0,15.0
25.81,0.0,0.0,0.0,0.0,0.0,0.0,0.0,15.0
25.73,0.0,0.0,0.0,0.0,0.0,0.0,0.0,15.0
25.73,0.0,0.0,0.0,0.0,0.0,0.0,0.0,15.0
25.79,0.0,0.0,0.0,0.0,0.0,0.0,0.0,15.0
25.75,0.0,0.0,0.0,0.0,0.0,0.0,0.0,15.0
25.69,0.0,0.0,0.0,0.0,0.0,0.0,0.0,15.0
25.81,0.0,0.0,0.0,0.0,0.0,0.0,0.0,15.0
25.69,0.0,0.0,0.0,0.0,0.0,0.0,0.0,15.0
25.73,0.0,0.0,0.0,0.0,0.0,0.0,0.0,16.0
25.75,0.0,0.0,0.0,0.0,0.0,0.0,0.0,16.0
25.69,0.0,0.0,0.0,0.0,0.0,0.0,0.0,16.0
25.69,0.0,0.0,0.0,0.0,0.0,0.0,0.0,16.0
25.49,0.0,0.0,0.0,0.0,0.0,0.0,0.0,16.0
25.43,0.0,0.0,0.0,0.0,0.0,0.0,0.0,16.0
25.35,0.0,0.0,0.0,0.0,0.0,0.0,0.0,16.0
25.25,0.0,0.0,0.0,0.0,0.0,0.0,0.0,16.0
25.43,0.0,0.0,0.0,0.0,0.0,0.0,0.0,16.0
25.47,0.0,0.0,0.0,0.0,0.0,0.0,0.0,16.0
25.53,0.0,0.0,0.0,0.0,0.0,0.0,0.0,16.0
25.55,0.0,0.0,0.0,0.0,0.0,0.0,0.0,16.0
25.49,0.0,0.0,0.0,0.0,0.0,0.0,0.0,25.0
25.55,0.0,0.0,0.0,0.0,0.0,0.0,0.0,35.0
25.59,0.0,0.0,0.0,0.0,0.0,0.0,0.0,45.0
25.61,0.0,0.0,0.0,0.0,0.0,0.0,0.0,54.0
25.59,0.0,0.0,0.0,0.0,0.0,0.0,0.0,63.0
25.67,0.0,0.0,0.0,0.0,0.0,0.0,0.0,72.0
25.61,0.0,0.0,0.0,0.0,0.0,0.0,0.0,81.0
25.59,0.0,0.0,0.0,0.0,0.0,0.0,251.0,90.0
25.63,0.0,0.0,0.0,0.0,0.0,0.0,312.0,91.0
25.63,0.0,0.0,0.0,0.0,0.0,0.0,329.0,91.0
25.61,0.0,0.0,0.0,0.0,0.0,0.0,330.0,91.0
25.61,0.0,0.0,0.0,0.0,0.0,0.0,332.0,91.0
25.69,0.0,0.0,0.0,0.0,0.0,0.0,340.0,91.0
25.59,0.0,0.0,0.0,0.0,0.0,0.0,339.0,91.0
25.67,0.0,0.0,0.0,0.0,0.0,0.0,334.0,91.0
25.61,0.0,0.0,0.0,0.0,0.0,0.0,333.0,91.0
25.61,0.0,0.0,0.0,0.0,0.0,0.0,336.0,91.0
25.63,0.0,0.0,0.0,0.0,0.0,0.0,333.0,91.0
25.61,0.0,0.0,0.0,0.0,0.0,0.0,334.0,91.0
25.61,0.0,0.0,0.0,0.0,0.0,0.0,332.0,91.0
25.63,0.0,0.0,0.0,0.0,0.0,0.0,329.0,91.0
25.59,0.0,0.0,0.0,0.0,0.0,0.0,323.0,91.0
25.59,0.0,0.0,0.0,0.0,0.0,0.0,326.0,91.0
25.59,0.0,0.0,0.0,0.0,0.0,0.0,330.0,91.0
25.69,0.0,0.0,0.0,0.0,0.0,0.0,328.0,91.0
25.67,0.0,0.0,0.0,0.0,0.0,0.0,332.0,91.0
25.69,0.0,0.0,0.0,0.0,0.0,0.0,330.0,91.0
25.63,0.0,0.0,0.0,0.0,0.0,0.0,326.0,91.0
25.67,0.0,0.0,0.0,0.0,0.0,0.0,335.0,91.0
25.67,0.0,0.0,0.0,0.0,0.0,0.0,343.0,91.0
25.63,0.0,0.0,0.0,0.0,0.0,0.0,344.0,91.0
25.67,0.0,0.0,0.0,0.0,0.0,0.0,287.0,100.0
25.63,0.0,0.0,0.0,0.0,0.0,0.0,297.0,100.0
25.63,0.0,0.0,0.0,0.0,0.0,0.0,294.0,100.0
25.63,0.0,0.0,0.0,0.0,0.0,0.0,304.0,100.0
25.61,0.0,0.0,0.0,0.0,0.0,0.0,306.0,100.0
25.49,0.0,0.0,0.0,0.0,0.0,0.0,291.0,100.0
25.47,0.0,0.0,0.0,0.0,0.0,0.0,297.0,100.0
25.55,0.0,0.0,0.0,0.0,0.0,0.0,302.0,100.0
25.49,0.0,0.0,0.0,0.0,0.0,0.0,264.0,100.0
25.53,0.0,0.0,0.0,0.0,0.0,0.0,278.0,100.0
25.53,0.0,0.0,0.0,0.0,0.0,0.0,288.0,100.0
25.55,0.0,0.0,0.0,0.0,0.0,0.0,296.0,100.0
25.55,0.0,0.0,0.0,0.0,0.0,0.0,301.0,100.0
25.59,0.0,0.0,0.0,0.0,0.0,0.0,300.0,100.0
25.63,0.0,0.0,0.0,0.0,0.0,0.0,307.0,100.0
25.49,0.0,0.0,0.0,0.0,0.0,0.0,309.0,100.0
25.49,0.0,0.0,0.0,0.0,0.0,0.0,311.0,100.0
25.49,0.0,0.0,0.0,0.0,0.0,0.0,307.0,100.0
25.49,0.0,0.0,0.0,0.0,0.0,0.0,309.0,100.0
25.55,0.0,0.0,0.0,0.0,0.0,0.0,310.0,100.0
25.55,0.0,0.0,0.0,0.0,0.0,0.0,304.0,100.0
25.61,0.0,0.0,0.0,0.0,0.0,0.0,312.0,100.0
25.59,0.0,0.0,0.0,0.0,0.0,0.0,309.0,100.0
25.49,0.0,0.0,0.0,0.0,0.0,0.0,310.0,100.0
25.47,0.0,0.0,0.0,0.0,0.0,0.0,316.0,100.0
25.55,0.0,0.0,0.0,0.0,0.0,0.0,311.0,100.0
25.43,0.0,0.0,0.0,0.0,0.0,0.0,315.0,100.0
25.59,0.0,0.0,0.0,0.0,0.0,0.0,318.0,100.0
25.59,0.0,0.0,0.0,0.0,0.0,0.0,321.0,100.0
25.55,0.0,0.0,0.0,0.0,0.0,0.0,322.0,100.0
25.63,0.0,0.0,0.0,0.0,0.0,0.0,320.0,100.0
25.63,0.0,0.0,0.0,0.0,0.0,0.0,316.0,100.0
25.67,0.0,0.0,0.0,0.0,0.0,0.0,318.0,100.0
25.63,0.0,0.0,0.0,0.0,0.0,0.0,309.0,100.0
25.61,0.0,0.0,0.0,0.0,0.0,0.0,317.0,100.0
25.67,0.0,0.0,0.0,0.0,0.0,0.0,318.0,100.0
25.63,0.0,0.0,0.0,0.0,0.0,0.0,314.0,100.0
25.63,0.0,0.0,0.0,0.0,0.0,0.0,313.0,100.0
25.61,0.0,0.0,0.0,0.0,0.0,0.0,320.0,100.0
25.55,0.0,0.0,0.0,0.0,0.0,0.0,314.0,100.0
25.55,0.0,0.0,19.0,0.0,0.0,0.0,315.0,100.0
25.47,0.0,0.0,0.0,0.0,0.0,0.0,314.0,100.0
25.47,0.0,0.0,0.0,0.0,0.0,0.0,310.0,100.0
25.47,0.0,0.0,0.0,0.0,0.0,0.0,315.0,100.0
25.47,0.0,0.0,0.0,0.0,0.0,0.0,318.0,100.0
25.47,0.0,0.0,0.0,0.0,0.0,0.0,315.0,100.0
25.55,0.0,0.0,0.0,0.0,0.0,0.0,313.0,100.0
25.53,0.0,0.0,0.0,0.0,0.0,0.0,306.0,100.0
25.49,0.0,0.0,0.0,0.0,0.0,0.0,313.0,100.0
25.59,0.0,0.0,0.0,0.0,0.0,0.0,313.0,100.0
25.55,0.0,0.0,67.0,0.0,0.0,0.0,312.0,100.0
25.43,0.0,0.0,0.0,0.0,0.0,0.0,312.0,100.0
25.47,0.0,0.0,0.0,0.0,0.0,0.0,307.0,100.0
25.43,0.0,0.0,0.0,0.0,0.0,0.0,306.0,100.0
25.41,0.0,0.0,0.0,0.0,0.0,0.0,311.0,100.0
25.47,0.0,0.0,0.0,0.0,0.0,0.0,313.0,100.0
25.53,0.0,0.0,0.0,0.0,0.0,0.0,316.0,100.0
25.47,0.0,0.0,0.0,0.0,0.0,0.0,317.0,100.0
25.53,0.0,0.0,0.0,0.0,0.0,0.0,317.0,100.0
25.59,0.0,0.0,0.0,0.0,0.0,0.0,318.0,100.0
25.61,0.0,0.0,0.0,0.0,0.0,0.0,132.0,15.0
25.55,0.0,0.0,0.0,0.0,0.0,0.0,0.0,15.0
25.69,0.0,0.0,0.0,0.0,0.0,0.0,0.0,15.0
25.63,0.0,0.0,0.0,0.0,0.0,0.0,0.0,15.0
25.63,0.0,0.0,0.0,0.0,0.0,0.0,0.0,15.0
25.75,0.0,0.0,0.0,0.0,0.0,0.0,0.0,15.0
26.29,0.0,0.0,0.0,0.0,0.0,0.0,0.0,15.0
26.93,0.0,0.0,0.0,0.0,0.0,0.0,0.0,15.0
27.09,0.0,0.0,0.0,0.0,0.0,0.0,0.0,15.0
25.85,0.0,0.0,0.0,0.0,0.0,0.0,0.0,15.0
25.79,0.0,0.0,0.0,0.0,0.0,0.0,0.0,15.0
25.85,0.0,0.0,0.0,0.0,0.0,0.0,0.0,15.0
25.85,0.0,0.0,0.0,0.0,0.0,0.0,0.0,15.0
25.85,0.0,0.0,0.0,0.0,0.0,0.0,0.0,15.0
25.75,0.0,0.0,0.0,0.0,0.0,0.0,0.0,15.0
26.43,0.0,0.0,0.0,0.0,0.0,0.0,0.0,15.0
27.15,0.0,0.0,0.0,0.0,0.0,0.0,0.0,15.0
27.03,0.0,0.0,0.0,0.0,0.0,0.0,1.0,15.0
26.59,0.0,0.0,0.0,0.0,0.0,0.0,0.0,15.0
25.79,0.0,0.0,0.0,0.0,0.0,0.0,0.0,15.0
25.73,0.0,0.0,0.0,0.0,0.0,0.0,0.0,15.0
25.73,0.0,0.0,0.0,0.0,0.0,0.0,0.0,15.0
25.73,0.0,0.0,0.0,0.0,0.0,0.0,0.0,15.0
25.61,0.0,0.0,0.0,0.0,0.0,0.0,0.0,15.0
25.61,0.0,0.0,0.0,0.0,0.0,0.0,0.0,15.0
25.59,0.0,0.0,0.0,0.0,0.0,0.0,0.0,15.0
25.61,0.0,0.0,0.0,0.0,0.0,0.0,0.0,15.0
25.61,0.0,0.0,0.0,0.0,0.0,0.0,0.0,15.0
25.67,0.0,0.0,0.0,0.0,0.0,0.0,0.0,15.0
25.69,0.0,0.0,0.0,0.0,0.0,0.0,0.0,15.0
25.79,0.0,0.0,0.0,0.0,0.0,0.0,0.0,15.0
25.75,0.0,0.0,0.0,0.0,0.0,0.0,0.0,15.0
25.63,0.0,0.0,0.0,0.0,0.0,0.0,0.0,15.0
25.69,0.0,0.0,0.0,0.0,0.0,0.0,0.0,15.0
25.67,0.0,0.0,0.0,0.0,0.0,0.0,0.0,15.0
25.53,0.0,0.0,0.0,0.0,0.0,0.0,0.0,15.0
25.61,0.0,0.0,0.0,0.0,0.0,0.0,0.0,15.0
25.47,0.0,0.0,0.0,0.0,0.0,0.0,0.0,15.0
25.49,0.0,0.0,0.0,0.0,0.0,0.0,0.0,15.0
25.49,0.0,0.0,0.0,0.0,0.0,0.0,0.0,15.0
25.59,0.0,0.0,0.0,0.0,0.0,0.0,0.0,15.0
25.55,0.0,0.0,0.0,0.0,0.0,0.0,0.0,15.0
25.55,0.0,0.0,0.0,0.0,0.0,0.0,0.0,15.0
25.49,0.0,0.0,0.0,0.0,0.0,0.0,0.0,15.0
25.55,0.0,0.0,0.0,0.0,0.0,0.0,0.0,15.0
25.61,0.0,0.0,0.0,0.0,0.0,0.0,0.0,15.0
25.67,0.0,0.0,0.0,0.0,0.0,0.0,0.0,15.0
25.63,0.0,0.0,0.0,0.0,0.0,0.0,0.0,15.0
25.85,0.0,0.0,0.0,0.0,0.0,0.0,0.0,15.0
25.75,0.0,0.0,0.0,0.0,0.0,164.0,0.0,15.0
25.69,0.0,0.0,0.0,0.0,0.0,0.0,0.0,15.0
25.69,0.0,0.0,0.0,0.0,0.0,0.0,0.0,15.0
25.63,0.0,0.0,0.0,0.0,0.0,0.0,0.0,15.0
25.73,0.0,0.0,0.0,0.0,0.0,0.0,0.0,15.0
25.73,0.0,0.0,0.0,0.0,0.0,0.0,0.0,25.0
25.75,0.0,0.0,0.0,0.0,0.0,0.0,0.0,35.0
25.81,0.0,0.0,0.0,0.0,0.0,0.0,0.0,44.0
25.87,0.0,0.0,0.0,0.0,0.0,0.0,0.0,54.0
25.91,0.0,0.0,0.0,0.0,0.0,0.0,0.0,63.0
25.99,0.0,0.0,0.0,0.0,0.0,0.0,0.0,74.0
25.97,0.0,0.0,0.0,0.0,0.0,0.0,0.0,83.0
26.03,0.0,0.0,0.0,0.0,0.0,0.0,0.0,93.0
25.91,0.0,0.0,0.0,0.0,0.0,0.0,1121.0,100.0
25.85,0.0,112.0,0.0,0.0,0.0,0.0,1925.0,100.0
25.81,0.0,195.0,0.0,0.0,0.0,0.0,2027.0,100.0
25.73,0.0,198.0,0.0,0.0,0.0,0.0,2078.0,100.0
25.75,0.0,206.0,0.0,0.0,0.0,0.0,2116.0,100.0
25.79,0.0,140.0,0.0,0.0,0.0,0.0,2074.0,100.0
25.75,0.0,130.0,0.0,0.0,0.0,0.0,2088.0,100.0
25.85,0.0,139.0,0.0,0.0,0.0,0.0,2101.0,100.0
25.85,0.0,418.0,0.0,0.0,0.0,0.0,2111.0,100.0
25.79,0.0,361.0,0.0,0.0,0.0,0.0,2339.0,100.0
25.81,0.0,387.0,0.0,0.0,0.0,0.0,2381.0,100.0
25.75,0.0,414.0,0.0,0.0,0.0,0.0,2382.0,100.0
25.75,0.0,438.0,0.0,0.0,0.0,0.0,2389.0,100.0
25.81,0.0,470.0,0.0,0.0,0.0,0.0,2356.0,100.0
25.81,0.0,482.0,0.0,0.0,13.0,0.0,2390.0,100.0
25.75,0.0,489.0,0.0,0.0,25.0,0.0,2392.0,100.0
25.87,0.0,506.0,0.0,0.0,45.0,0.0,2366.0,100.0
25.91,0.0,496.0,0.0,0.0,61.0,0.0,2411.0,100.0
25.93,0.0,510.0,0.0,0.0,63.0,0.0,2421.0,100.0
25.85,0.0,524.0,0.0,0.0,56.0,0.0,2432.0,100.0
25.85,0.0,525.0,0.0,0.0,60.0,0.0,2427.0,100.0
25.91,0.0,544.0,0.0,0.0,55.0,0.0,2436.0,100.0
25.87,0.0,524.0,0.0,0.0,53.0,0.0,2434.0,100.0
25.87,0.0,531.0,0.0,0.0,64.0,0.0,2440.0,100.0
25.91,0.0,528.0,0.0,0.0,64.0,0.0,2439.0,100.0
25.91,0.0,528.0,0.0,0.0,64.0,0.0,2447.0,100.0
25.75,0.0,533.0,0.0,242.0,64.0,0.0,2439.0,100.0
25.79,0.0,536.0,0.0,0.0,42.0,0.0,2430.0,100.0
25.79,0.0,525.0,0.0,0.0,48.0,0.0,2440.0,100.0
25.87,0.0,511.0,0.0,0.0,37.0,0.0,2460.0,100.0
25.79,0.0,505.0,0.0,0.0,49.0,0.0,2482.0,100.0
25.79,0.0,462.0,0.0,0.0,26.0,0.0,2520.0,100.0
25.81,0.0,428.0,0.0,0.0,5.0,0.0,2546.0,100.0
25.79,0.0,465.0,0.0,0.0,41.0,0.0,2534.0,100.0
25.81,0.0,401.0,0.0,0.0,17.0,0.0,2542.0,100.0
25.79,0.0,445.0,0.0,0.0,9.0,0.0,2548.0,100.0
25.75,0.0,430.0,0.0,0.0,14.0,0.0,2548.0,100.0
25.69,0.0,427.0,0.0,0.0,21.0,0.0,2570.0,100.0
25.79,0.0,427.0,0.0,0.0,14.0,0.0,2572.0,100.0
25.87,0.0,416.0,0.0,0.0,13.0,0.0,2579.0,100.0
25.79,0.0,406.0,0.0,0.0,9.0,0.0,2578.0,100.0
25.73,0.0,404.0,0.0,0.0,9.0,0.0,2580.0,100.0
25.91,0.0,414.0,0.0,0.0,7.0,0.0,2583.0,100.0
25.81,0.0,411.0,0.0,0.0,13.0,0.0,2595.0,100.0
25.81,0.0,398.0,0.0,0.0,64.0,0.0,2587.0,100.0
25.73,0.0,409.0,0.0,0.0,17.0,0.0,2592.0,100.0
25.69,0.0,407.0,0.0,0.0,272.0,0.0,2595.0,100.0
25.67,0.0,418.0,0.0,0.0,16.0,0.0,2596.0,100.0
25.69,0.0,410.0,0.0,0.0,16.0,0.0,2593.0,100.0
25.75,0.0,407.0,0.0,0.0,17.0,0.0,2602.0,100.0
25.69,0.0,415.0,0.0,0.0,16.0,0.0,2591.0,100.0
25.73,0.0,418.0,0.0,0.0,20.0,0.0,2593.0,100.0
25.67,0.0,415.0,0.0,0.0,0.0,0.0,2596.0,100.0
25.69,0.0,420.0,0.0,0.0,16.0,0.0,2594.0,100.0
25.69,0.0,430.0,0.0,0.0,17.0,0.0,2598.0,100.0
25.67,168.0,417.0,0.0,0.0,18.0,0.0,2596.0,100.0
25.63,0.0,416.0,0.0,0.0,29.0,0.0,2606.0,100.0
25.61,0.0,420.0,0.0,0.0,65.0,0.0,2608.0,100.0
25.63,0.0,415.0,0.0,0.0,17.0,0.0,2603.0,100.0
25.67,0.0,419.0,0.0,0.0,27.0,0.0,2592.0,100.0
25.73,0.0,432.0,0.0,0.0,23.0,0.0,2599.0,100.0
25.69,0.0,416.0,0.0,0.0,23.0,0.0,2593.0,100.0
25.73,0.0,421.0,0.0,0.0,20.0,0.0,2610.0,100.0
25.75,0.0,430.0,0.0,0.0,26.0,0.0,2599.0,100.0
25.75,0.0,431.0,0.0,0.0,25.0,0.0,2610.0,100.0
25.75,0.0,422.0,0.0,0.0,28.0,0.0,2604.0,100.0
25.75,0.0,426.0,0.0,0.0,110.0,0.0,2602.0,100.0
25.75,0.0,415.0,0.0,0.0,19.0,0.0,2603.0,100.0
25.73,0.0,425.0,0.0,0.0,20.0,0.0,2601.0,100.0
25.73,0.0,413.0,0.0,0.0,19.0,0.0,2602.0,100.0
25.73,0.0,419.0,0.0,0.0,27.0,0.0,2603.0,100.0
25.81,0.0,405.0,0.0,0.0,20.0,0.0,2604.0,100.0
25.75,0.0,406.0,0.0,0.0,21.0,0.0,2606.0,100.0
25.85,0.0,429.0,0.0,0.0,0.0,0.0,2606.0,100.0
25.87,0.0,431.0,0.0,0.0,18.0,0.0,2608.0,100.0
25.85,0.0,439.0,0.0,0.0,23.0,0.0,2609.0,100.0
25.87,0.0,410.0,0.0,0.0,27.0,0.0,2613.0,100.0
25.85,0.0,425.0,0.0,0.0,23.0,0.0,2612.0,100.0
25.81,0.0,424.0,0.0,0.0,0.0,0.0,2607.0,100.0
25.91,0.0,352.0,0.0,0.0,20.0,0.0,2606.0,100.0
25.85,0.0,430.0,0.0,0.0,19.0,0.0,2606.0,100.0
25.91,0.0,475.0,0.0,0.0,26.0,0.0,2601.0,100.0
25.75,0.0,432.0,0.0,0.0,50.0,0.0,2618.0,100.0
25.73,0.0,426.0,0.0,0.0,22.0,0.0,2603.0,100.0
25.69,0.0,432.0,144.0,0.0,34.0,0.0,2609.0,100.0
25.67,0.0,0.0,0.0,0.0,0.0,0.0,70.0,15.0
25.63,0.0,0.0,0.0,0.0,0.0,0.0,0.0,15.0
25.47,0.0,0.0,0.0,0.0,0.0,0.0,0.0,15.0
25.41,0.0,0.0,0.0,0.0,0.0,0.0,0.0,15.0
25.35,0.0,0.0,0.0,0.0,0.0,0.0,0.0,15.0
25.41,0.0,0.0,0.0,0.0,0.0,0.0,0.0,15.0
25.47,0.0,0.0,0.0,0.0,0.0,0.0,0.0,15.0
25.73,0.0,0.0,0.0,0.0,0.0,0.0,0.0,15.0
26.85,0.0,0.0,0.0,0.0,0.0,0.0,0.0,15.0
26.91,0.0,0.0,0.0,0.0,0.0,0.0,0.0,15.0
26.93,0.0,0.0,0.0,0.0,0.0,0.0,0.0,15.0
27.31,0.0,0.0,0.0,0.0,0.0,0.0,0.0,15.0
27.25,0.0,0.0,0.0,0.0,0.0,0.0,0.0,15.0
26.05,0.0,0.0,0.0,0.0,0.0,0.0,0.0,15.0
25.97,0.0,0.0,0.0,0.0,0.0,0.0,0.0,15.0
25.81,0.0,0.0,0.0,0.0,0.0,0.0,0.0,15.0
25.69,0.0,0.0,0.0,0.0,0.0,0.0,0.0,15.0
25.63,0.0,0.0,0.0,0.0,0.0,0.0,0.0,15.0
25.59,0.0,0.0,0.0,0.0,0.0,0.0,0.0,15.0
25.59,0.0,0.0,0.0,0.0,0.0,0.0,0.0,15.0
25.59,0.0,0.0,0.0,0.0,0.0,0.0,0.0,15.0
25.59,0.0,0.0,0.0,0.0,0.0,0.0,0.0,15.0
25.59,0.0,0.0,0.0,0.0,0.0,0.0,0.0,15.0
25.55,0.0,0.0,0.0,0.0,0.0,0.0,0.0,15.0
25.63,0.0,0.0,0.0,0.0,0.0,0.0,0.0,15.0
25.59,0.0,0.0,0.0,0.0,0.0,0.0,0.0,15.0
25.61,0.0,0.0,0.0,0.0,0.0,0.0,0.0,15.0
25.93,0.0,0.0,0.0,0.0,0.0,0.0,0.0,15.0
25.91,0.0,0.0,0.0,0.0,0.0,0.0,0.0,15.0
25.97,0.0,0.0,0.0,0.0,0.0,0.0,0.0,15.0
25.91,0.0,0.0,0.0,0.0,0.0,0.0,0.0,15.0
25.97,0.0,0.0,0.0,0.0,0.0,0.0,0.0,15.0
25.97,0.0,0.0,0.0,0.0,0.0,0.0,0.0,15.0
25.97,0.0,0.0,0.0,0.0,0.0,0.0,0.0,15.0
25.97,0.0,0.0,0.0,0.0,0.0,0.0,0.0,15.0
25.93,0.0,0.0,0.0,0.0,0.0,0.0,0.0,15.0
25.91,0.0,0.0,0.0,0.0,0.0,0.0,0.0,15.0
25.93,0.0,0.0,0.0,0.0,0.0,0.0,0.0,15.0
25.93,0.0,0.0,0.0,0.0,0.0,0.0,0.0,15.0
25.93,0.0,0.0,0.0,0.0,0.0,0.0,0.0,15.0
25.97,0.0,0.0,0.0,0.0,0.0,0.0,0.0,15.0
25.99,0.0,0.0,0.0,0.0,0.0,0.0,0.0,15.0
25.97,0.0,0.0,0.0,0.0,0.0,0.0,0.0,15.0
25.93,0.0,0.0,0.0,0.0,0.0,0.0,0.0,15.0
25.87,0.0,0.0,0.0,0.0,0.0,0.0,0.0,15.0
25.99,0.0,0.0,0.0,0.0,0.0,0.0,0.0,15.0
28.77,0.0,0.0,0.0,0.0,0.0,0.0,0.0,15.0
32.35,0.0,0.0,0.0,0.0,0.0,0.0,0.0,15.0
35.93,0.0,0.0,0.0,0.0,0.0,0.0,0.0,15.0
36.39,0.0,0.0,0.0,0.0,0.0,0.0,0.0,15.0
36.65,0.0,0.0,0.0,0.0,0.0,0.0,0.0,16.0
36.13,0.0,0.0,0.0,0.0,0.0,0.0,0.0,25.0
35.81,0.0,0.0,0.0,0.0,0.0,0.0,0.0,34.0
35.89,0.0,0.0,0.0,0.0,0.0,0.0,0.0,43.0
35.71,0.0,0.0,0.0,0.0,0.0,0.0,0.0,54.0
35.15,0.0,0.0,0.0,0.0,0.0,0.0,0.0,63.0
34.51,0.0,0.0,0.0,0.0,0.0,0.0,261.0,73.0
34.21,0.0,0.0,0.0,362.0,0.0,0.0,2021.0,84.0
34.25,0.0,0.0,0.0,240.0,0.0,0.0,1948.0,89.0
34.29,0.0,0.0,0.0,279.0,0.0,0.0,1960.0,89.0
34.17,0.0,0.0,0.0,300.0,0.0,0.0,2031.0,89.0
34.25,0.0,0.0,0.0,298.0,0.0,0.0,2060.0,89.0
34.31,0.0,0.0,0.0,242.0,0.0,0.0,2070.0,89.0
34.37,0.0,0.0,0.0,304.0,0.0,0.0,2078.0,89.0
34.33,0.0,0.0,0.0,177.0,0.0,0.0,2066.0,89.0
34.37,0.0,0.0,0.0,208.0,0.0,0.0,1926.0,89.0
34.37,0.0,0.0,0.0,160.0,0.0,0.0,1795.0,89.0
34.31,0.0,0.0,0.0,227.0,0.0,0.0,1677.0,89.0
34.29,0.0,0.0,0.0,263.0,0.0,0.0,1651.0,89.0
34.33,0.0,0.0,0.0,430.0,0.0,0.0,1579.0,89.0
34.23,0.0,0.0,0.0,386.0,0.0,0.0,1581.0,89.0
34.37,0.0,0.0,0.0,436.0,0.0,0.0,1615.0,89.0
34.37,0.0,0.0,0.0,542.0,0.0,0.0,1626.0,89.0
34.51,0.0,0.0,0.0,663.0,0.0,0.0,1786.0,89.0
34.47,0.0,0.0,0.0,670.0,0.0,0.0,1803.0,89.0
34.51,0.0,0.0,0.0,689.0,0.0,0.0,1812.0,89.0
34.53,0.0,0.0,0.0,688.0,0.0,0.0,1817.0,89.0
34.55,0.0,0.0,0.0,713.0,0.0,0.0,1825.0,89.0
34.59,0.0,0.0,0.0,357.0,0.0,0.0,1849.0,99.0
34.53,0.0,0.0,0.0,926.0,0.0,0.0,2093.0,100.0
34.43,0.0,0.0,0.0,959.0,0.0,0.0,2135.0,100.0
34.45,0.0,0.0,0.0,957.0,0.0,0.0,2143.0,100.0
34.39,0.0,0.0,0.0,943.0,0.0,0.0,2133.0,100.0
34.39,0.0,0.0,0.0,929.0,0.0,0.0,2160.0,100.0
34.33,0.0,0.0,0.0,918.0,0.0,0.0,2131.0,100.0
34.37,0.0,0.0,0.0,880.0,0.0,0.0,2137.0,100.0
34.43,0.0,0.0,0.0,880.0,0.0,0.0,2201.0,100.0
34.43,0.0,0.0,0.0,845.0,0.0,0.0,2169.0,100.0
34.39,0.0,0.0,0.0,860.0,0.0,0.0,2226.0,100.0
34.37,0.0,0.0,0.0,838.0,0.0,0.0,2379.0,100.0
34.47,0.0,0.0,0.0,871.0,0.0,0.0,2401.0,100.0
34.55,0.0,0.0,0.0,880.0,0.0,0.0,2461.0,100.0
34.59,0.0,0.0,0.0,868.0,0.0,0.0,2494.0,100.0
34.55,0.0,0.0,0.0,912.0,0.0,0.0,2560.0,100.0
34.63,0.0,0.0,0.0,925.0,0.0,0.0,2486.0,100.0
34.53,0.0,0.0,0.0,933.0,0.0,0.0,2501.0,100.0
34.61,0.0,0.0,0.0,944.0,0.0,0.0,2507.0,100.0
34.63,0.0,0.0,0.0,966.0,0.0,0.0,2501.0,100.0
34.63,0.0,0.0,0.0,962.0,0.0,0.0,2508.0,100.0
34.63,0.0,0.0,0.0,979.0,0.0,0.0,2513.0,100.0
34.55,0.0,0.0,0.0,983.0,0.0,0.0,2515.0,100.0
34.47,0.0,0.0,0.0,997.0,0.0,0.0,2508.0,100.0
34.53,0.0,0.0,0.0,1002.0,0.0,0.0,2512.0,100.0
34.51,0.0,0.0,0.0,1008.0,0.0,0.0,2516.0,100.0
34.47,0.0,0.0,0.0,1039.0,0.0,0.0,2508.0,100.0
34.43,0.0,0.0,0.0,1041.0,0.0,0.0,2508.0,100.0
34.45,0.0,0.0,0.0,1066.0,0.0,0.0,2504.0,100.0
34.39,0.0,0.0,0.0,1069.0,0.0,0.0,2505.0,100.0
34.45,0.0,0.0,0.0,1065.0,0.0,0.0,2495.0,100.0
34.43,0.0,0.0,0.0,1072.0,0.0,0.0,2496.0,100.0
34.51,0.0,0.0,0.0,1072.0,0.0,0.0,2501.0,100.0
34.51,0.0,0.0,0.0,1089.0,0.0,0.0,2507.0,100.0
34.63,0.0,0.0,0.0,1099.0,0.0,0.0,2516.0,100.0
34.63,0.0,0.0,0.0,1086.0,0.0,0.0,2508.0,100.0
34.67,0.0,0.0,0.0,1109.0,0.0,0.0,2503.0,100.0
34.61,0.0,0.0,0.0,1109.0,0.0,0.0,2512.0,100.0
34.63,0.0,0.0,0.0,1120.0,0.0,0.0,2513.0,100.0
34.67,0.0,0.0,0.0,1130.0,0.0,0.0,2511.0,100.0
34.55,0.0,0.0,0.0,1136.0,0.0,0.0,2518.0,100.0
34.55,0.0,0.0,0.0,1134.0,0.0,0.0,2512.0,100.0
34.67,0.0,0.0,0.0,1136.0,0.0,0.0,2515.0,100.0
34.67,0.0,0.0,0.0,1142.0,0.0,0.0,2516.0,100.0
34.59,0.0,0.0,0.0,1146.0,0.0,0.0,2518.0,100.0
34.69,0.0,0.0,0.0,1147.0,0.0,0.0,2508.0,100.0
34.75,0.0,0.0,0.0,1143.0,0.0,0.0,2515.0,100.0
34.71,0.0,0.0,0.0,1155.0,0.0,0.0,2514.0,100.0
34.63,0.0,0.0,0.0,1155.0,0.0,0.0,2517.0,100.0
34.55,0.0,0.0,0.0,1236.0,0.0,0.0,2513.0,100.0
34.51,0.0,0.0,0.0,1158.0,0.0,0.0,2516.0,100.0
34.51,0.0,0.0,0.0,1155.0,0.0,0.0,2510.0,100.0
34.37,0.0,0.0,0.0,1165.0,0.0,0.0,2513.0,100.0
34.47,0.0,0.0,0.0,1163.0,0.0,0.0,2513.0,100.0
34.51,0.0,0.0,0.0,1164.0,0.0,0.0,2507.0,100.0
34.59,0.0,0.0,0.0,1168.0,0.0,0.0,2514.0,100.0
34.55,0.0,0.0,0.0,1168.0,0.0,0.0,2512.0,100.0
34.63,0.0,0.0,0.0,1180.0,0.0,0.0,2514.0,100.0
34.51,0.0,0.0,0.0,1171.0,0.0,0.0,2520.0,100.0
34.39,0.0,0.0,0.0,1177.0,0.0,0.0,2512.0,100.0
34.37,0.0,0.0,0.0,1178.0,0.0,0.0,2512.0,100.0
34.29,0.0,0.0,0.0,1184.0,0.0,0.0,2512.0,100.0
34.29,0.0,0.0,0.0,1182.0,0.0,0.0,2514.0,100.0
34.25,0.0,0.0,0.0,1188.0,0.0,0.0,2517.0,100.0
34.21,0.0,0.0,0.0,1195.0,0.0,0.0,2508.0,100.0
34.25,0.0,0.0,0.0,1183.0,0.0,0.0,2380.0,15.0
34.97,0.0,0.0,0.0,0.0,0.0,0.0,60.0,15.0
35.63,0.0,0.0,0.0,0.0,0.0,0.0,0.0,15.0
26.15,0.0,0.0,0.0,0.0,0.0,0.0,0.0,15.0
27.31,0.0,0.0,0.0,0.0,0.0,0.0,0.0,15.0
27.23,0.0,0.0,0.0,0.0,0.0,0.0,0.0,15.0
27.29,0.0,0.0,0.0,0.0,0.0,0.0,0.0,15.0
27.99,0.0,0.0,0.0,0.0,0.0,0.0,0.0,15.0
26.11,0.0,0.0,0.0,0.0,0.0,0.0,0.0,15.0
25.73,0.0,0.0,0.0,0.0,0.0,0.0,0.0,15.0
25.67,0.0,0.0,0.0,0.0,0.0,0.0,0.0,15.0
25.63,0.0,0.0,0.0,0.0,0.0,0.0,0.0,15.0
25.73,0.0,0.0,0.0,0.0,0.0,0.0,0.0,15.0
25.81,0.0,0.0,0.0,0.0,0.0,0.0,0.0,15.0
25.75,0.0,0.0,0.0,0.0,0.0,0.0,0.0,15.0
25.75,0.0,0.0,0.0,0.0,0.0,0.0,0.0,15.0
25.79,0.0,0.0,0.0,0.0,0.0,0.0,0.0,15.0
25.69,0.0,0.0,0.0,0.0,0.0,0.0,0.0,15.0
25.73,0.0,0.0,0.0,0.0,0.0,0.0,0.0,15.0
25.63,0.0,0.0,0.0,0.0,0.0,0.0,0.0,15.0
25.67,0.0,0.0,0.0,0.0,0.0,0.0,0.0,15.0
25.63,0.0,0.0,0.0,0.0,0.0,0.0,0.0,15.0
25.63,0.0,0.0,0.0,0.0,0.0,0.0,0.0,15.0
25.73,0.0,0.0,0.0,0.0,0.0,0.0,0.0,15.0
25.79,0.0,0.0,0.0,0.0,0.0,0.0,0.0,15.0
25.73,0.0,0.0,0.0,0.0,0.0,0.0,0.0,15.0
25.75,0.0,0.0,0.0,0.0,0.0,0.0,0.0,15.0
25.81,0.0,0.0,0.0,0.0,0.0,0.0,0.0,15.0
25.81,0.0,0.0,0.0,0.0,0.0,0.0,0.0,15.0
25.93,0.0,0.0,0.0,0.0,0.0,0.0,0.0,15.0
26.05,0.0,0.0,0.0,0.0,0.0,0.0,0.0,15.0
26.09,0.0,0.0,0.0,0.0,240.0,0.0,0.0,15.0
26.15,0.0,0.0,0.0,0.0,0.0,0.0,0.0,15.0
26.11,0.0,0.0,0.0,0.0,0.0,0.0,0.0,15.0
26.09,0.0,0.0,0.0,0.0,0.0,0.0,0.0,15.0
26.09,0.0,0.0,0.0,0.0,0.0,0.0,0.0,15.0
26.11,0.0,0.0,0.0,0.0,0.0,0.0,0.0,15.0
26.05,0.0,0.0,0.0,0.0,0.0,0.0,0.0,15.0
26.05,0.0,0.0,0.0,0.0,0.0,0.0,0.0,15.0
26.09,0.0,0.0,0.0,0.0,0.0,0.0,0.0,15.0
26.05,0.0,0.0,0.0,0.0,0.0,0.0,0.0,15.0
26.05,0.0,0.0,0.0,0.0,0.0,0.0,0.0,15.0
26.05,0.0,0.0,0.0,0.0,0.0,0.0,0.0,15.0
26.05,0.0,0.0,0.0,0.0,0.0,0.0,1.0,15.0
26.03,0.0,0.0,0.0,0.0,0.0,0.0,0.0,15.0
26.05,0.0,0.0,0.0,0.0,0.0,0.0,0.0,15.0
26.05,0.0,0.0,0.0,0.0,0.0,0.0,0.0,15.0
25.91,0.0,0.0,0.0,0.0,0.0,0.0,0.0,15.0
25.91,0.0,0.0,0.0,0.0,0.0,0.0,0.0,15.0
26.03,0.0,0.0,0.0,0.0,0.0,0.0,0.0,15.0
26.15,0.0,0.0,0.0,0.0,0.0,0.0,0.0,15.0
26.27,0.0,0.0,0.0,0.0,0.0,0.0,0.0,21.0
26.31,0.0,0.0,0.0,0.0,0.0,0.0,0.0,31.0
26.21,0.0,0.0,0.0,0.0,0.0,0.0,0.0,40.0
26.21,0.0,0.0,0.0,0.0,0.0,0.0,0.0,49.0
26.11,0.0,0.0,0.0,0.0,0.0,0.0,0.0,58.0
26.11,0.0,0.0,0.0,0.0,0.0,0.0,0.0,67.0
26.11,0.0,0.0,0.0,0.0,0.0,0.0,0.0,76.0
26.11,0.0,0.0,0.0,0.0,0.0,0.0,0.0,86.0
26.09,0.0,0.0,0.0,0.0,0.0,66.0,0.0,96.0
26.15,0.0,0.0,0.0,0.0,0.0,507.0,0.0,100.0
26.11,0.0,0.0,224.0,0.0,0.0,568.0,0.0,100.0
26.09,0.0,0.0,256.0,0.0,0.0,583.0,0.0,100.0
26.09,0.0,0.0,183.0,0.0,0.0,550.0,0.0,100.0
26.09,0.0,0.0,218.0,0.0,0.0,557.0,0.0,100.0
26.09,0.0,0.0,258.0,0.0,0.0,558.0,0.0,100.0
26.03,0.0,0.0,271.0,0.0,0.0,563.0,0.0,100.0
26.09,0.0,0.0,291.0,0.0,0.0,557.0,0.0,100.0
26.05,0.0,0.0,320.0,0.0,0.0,612.0,0.0,100.0
26.05,0.0,0.0,353.0,0.0,0.0,603.0,0.0,100.0
26.05,0.0,0.0,365.0,0.0,0.0,619.0,0.0,100.0
26.03,0.0,0.0,400.0,0.0,0.0,621.0,0.0,100.0
26.05,0.0,0.0,422.0,0.0,0.0,615.0,0.0,100.0
26.09,0.0,0.0,438.0,0.0,0.0,619.0,0.0,100.0
26.11,0.0,0.0,443.0,0.0,0.0,635.0,0.0,100.0
26.15,0.0,0.0,448.0,0.0,0.0,627.0,0.0,100.0
26.11,0.0,0.0,467.0,0.0,0.0,633.0,0.0,100.0
26.09,0.0,0.0,469.0,0.0,0.0,640.0,0.0,100.0
26.11,0.0,0.0,481.0,0.0,0.0,636.0,0.0,100.0
26.15,0.0,0.0,474.0,0.0,0.0,646.0,0.0,100.0
26.15,0.0,0.0,539.0,0.0,0.0,621.0,0.0,100.0
26.05,0.0,0.0,480.0,0.0,0.0,669.0,0.0,100.0
26.09,0.0,0.0,486.0,0.0,0.0,638.0,0.0,100.0
26.03,0.0,0.0,491.0,0.0,0.0,643.0,0.0,100.0
26.05,0.0,0.0,473.0,0.0,0.0,640.0,0.0,100.0
26.09,0.0,0.0,496.0,0.0,0.0,641.0,0.0,100.0
26.09,0.0,0.0,495.0,0.0,0.0,647.0,0.0,100.0
26.09,0.0,0.0,493.0,0.0,0.0,638.0,0.0,100.0
26.03,0.0,0.0,478.0,0.0,0.0,638.0,0.0,100.0
26.09,0.0,0.0,410.0,0.0,0.0,592.0,0.0,100.0
26.05,0.0,0.0,433.0,0.0,0.0,623.0,0.0,100.0
26.03,0.0,0.0,422.0,0.0,0.0,629.0,0.0,100.0
26.05,0.0,0.0,415.0,0.0,0.0,625.0,0.0,100.0
26.05,0.0,0.0,416.0,0.0,0.0,619.0,0.0,100.0
25.99,0.0,0.0,407.0,0.0,0.0,612.0,0.0,100.0
25.99,0.0,0.0,395.0,0.0,0.0,627.0,0.0,100.0
25.99,0.0,0.0,397.0,0.0,0.0,635.0,0.0,100.0
25.93,0.0,0.0,396.0,0.0,0.0,627.0,0.0,100.0
25.93,0.0,0.0,394.0,0.0,0.0,631.0,0.0,100.0
26.03,0.0,0.0,390.0,0.0,0.0,622.0,0.0,100.0
25.97,0.0,0.0,404.0,0.0,0.0,624.0,0.0,100.0
25.97,0.0,0.0,401.0,0.0,0.0,613.0,0.0,100.0
25.97,0.0,0.0,407.0,0.0,0.0,624.0,0.0,100.0
25.91,0.0,0.0,400.0,0.0,0.0,628.0,0.0,100.0
25.97,0.0,0.0,278.0,0.0,0.0,626.0,0.0,100.0
25.97,0.0,0.0,396.0,0.0,0.0,627.0,0.0,100.0
25.93,0.0,0.0,406.0,0.0,0.0,629.0,0.0,100.0
25.97,0.0,0.0,407.0,0.0,0.0,626.0,0.0,100.0
25.99,0.0,0.0,407.0,0.0,0.0,636.0,0.0,100.0
25.97,0.0,0.0,398.0,0.0,0.0,528.0,0.0,100.0
25.99,0.0,0.0,397.0,0.0,0.0,690.0,0.0,100.0
25.91,0.0,0.0,405.0,0.0,0.0,629.0,0.0,100.0
25.97,0.0,0.0,413.0,0.0,0.0,631.0,0.0,100.0
25.81,0.0,0.0,406.0,0.0,0.0,631.0,0.0,100.0
25.75,0.0,0.0,409.0,0.0,0.0,630.0,0.0,100.0
25.81,0.0,0.0,407.0,0.0,0.0,624.0,0.0,100.0
25.75,0.0,0.0,398.0,0.0,0.0,613.0,0.0,100.0
25.75,0.0,0.0,401.0,0.0,0.0,632.0,0.0,100.0
25.75,0.0,0.0,417.0,0.0,0.0,662.0,0.0,100.0
25.69,0.0,0.0,422.0,0.0,0.0,626.0,0.0,100.0
25.85,0.0,0.0,411.0,0.0,0.0,640.0,0.0,100.0
25.81,0.0,0.0,417.0,0.0,0.0,627.0,0.0,100.0
25.91,0.0,0.0,411.0,0.0,0.0,633.0,0.0,100.0
25.85,0.0,0.0,415.0,0.0,0.0,624.0,0.0,100.0
25.91,0.0,0.0,416.0,0.0,0.0,636.0,0.0,100.0
25.91,0.0,0.0,410.0,0.0,0.0,637.0,0.0,100.0
25.87,0.0,0.0,418.0,0.0,0.0,607.0,0.0,100.0
25.91,0.0,0.0,418.0,56.0,0.0,636.0,0.0,100.0
25.91,0.0,0.0,414.0,0.0,0.0,640.0,0.0,100.0
25.91,0.0,0.0,419.0,0.0,0.0,634.0,0.0,100.0
25.93,0.0,0.0,421.0,0.0,0.0,638.0,0.0,100.0
25.99,0.0,0.0,422.0,0.0,0.0,614.0,0.0,100.0
25.93,0.0,0.0,418.0,0.0,0.0,640.0,0.0,100.0
25.93,0.0,0.0,423.0,0.0,0.0,630.0,0.0,100.0
25.97,0.0,0.0,433.0,0.0,0.0,630.0,0.0,100.0
25.93,0.0,0.0,427.0,0.0,0.0,641.0,0.0,100.0
25.99,0.0,0.0,400.0,0.0,0.0,635.0,0.0,100.0
25.93,0.0,0.0,417.0,0.0,0.0,636.0,0.0,100.0
25.99,0.0,0.0,418.0,0.0,0.0,633.0,0.0,100.0
25.91,0.0,0.0,445.0,0.0,0.0,635.0,0.0,100.0
25.91,0.0,0.0,419.0,0.0,0.0,630.0,0.0,100.0
25.91,0.0,0.0,415.0,0.0,0.0,633.0,0.0,100.0
25.85,0.0,0.0,400.0,0.0,0.0,627.0,0.0,100.0
25.87,0.0,0.0,418.0,0.0,0.0,625.0,0.0,100.0
25.79,0.0,0.0,417.0,0.0,0.0,627.0,0.0,100.0
25.79,0.0,0.0,426.0,0.0,0.0,637.0,0.0,100.0
25.87,0.0,0.0,419.0,0.0,0.0,627.0,0.0,100.0
25.87,0.0,0.0,0.0,0.0,0.0,0.0,0.0,15.0
25.97,0.0,0.0,0.0,0.0,0.0,0.0,0.0,15.0
25.53,0.0,0.0,0.0,0.0,0.0,0.0,0.0,15.0
25.67,0.0,0.0,0.0,0.0,0.0,0.0,0.0,15.0
25.67,0.0,0.0,0.0,0.0,0.0,0.0,0.0,15.0
27.11,0.0,0.0,0.0,0.0,0.0,0.0,0.0,15.0
27.37,0.0,0.0,0.0,0.0,0.0,0.0,0.0,15.0
27.17,0.0,0.0,0.0,0.0,0.0,0.0,0.0,15.0
26.79,0.0,0.0,0.0,0.0,0.0,0.0,0.0,15.0
25.73,0.0,0.0,0.0,0.0,0.0,0.0,0.0,15.0
25.55,0.0,0.0,0.0,0.0,0.0,0.0,0.0,15.0
25.59,0.0,0.0,0.0,0.0,0.0,0.0,0.0,15.0
25.61,0.0,0.0,0.0,0.0,0.0,0.0,0.0,15.0
25.69,0.0,0.0,0.0,0.0,0.0,0.0,0.0,15.0
25.59,0.0,0.0,0.0,0.0,0.0,0.0,0.0,15.0
25.67,0.0,0.0,0.0,0.0,0.0,0.0,0.0,15.0
25.69,0.0,0.0,0.0,0.0,0.0,0.0,0.0,15.0
25.61,0.0,0.0,0.0,0.0,0.0,0.0,0.0,15.0
25.69,0.0,0.0,0.0,0.0,0.0,0.0,0.0,15.0
25.69,0.0,0.0,0.0,0.0,0.0,0.0,0.0,15.0
25.63,0.0,0.0,0.0,0.0,0.0,0.0,0.0,15.0
25.63,0.0,0.0,0.0,0.0,0.0,0.0,0.0,15.0
25.63,0.0,0.0,0.0,0.0,0.0,0.0,0.0,15.0
25.63,0.0,0.0,0.0,0.0,0.0,0.0,0.0,15.0
25.63,0.0,0.0,0.0,0.0,0.0,0.0,0.0,15.0
25.69,0.0,0.0,0.0,0.0,0.0,0.0,0.0,15.0
25.61,0.0,0.0,0.0,0.0,0.0,0.0,0.0,15.0
25.67,0.0,0.0,0.0,0.0,0.0,0.0,0.0,15.0
25.63,0.0,0.0,0.0,0.0,0.0,0.0,0.0,15.0
25.75,0.0,0.0,0.0,0.0,0.0,0.0,0.0,15.0
25.75,0.0,0.0,0.0,0.0,0.0,0.0,0.0,15.0
25.75,0.0,0.0,0.0,0.0,0.0,0.0,0.0,15.0
25.75,0.0,0.0,0.0,0.0,0.0,0.0,0.0,15.0
25.91,0.0,0.0,0.0,0.0,0.0,0.0,0.0,15.0
25.85,0.0,0.0,0.0,0.0,0.0,0.0,0.0,15.0
25.75,0.0,0.0,0.0,0.0,0.0,0.0,0.0,15.0
25.85,0.0,0.0,0.0,0.0,0.0,0.0,0.0,15.0
25.85,32.0,0.0,0.0,0.0,0.0,0.0,0.0,15.0
25.75,0.0,0.0,0.0,0.0,0.0,0.0,0.0,15.0
25.79,0.0,0.0,0.0,0.0,0.0,0.0,0.0,15.0
25.73,0.0,0.0,0.0,0.0,0.0,0.0,0.0,15.0
25.73,0.0,0.0,0.0,0.0,0.0,0.0,0.0,15.0
25.67,0.0,0.0,0.0,0.0,0.0,0.0,0.0,15.0
25.61,0.0,0.0,0.0,0.0,0.0,0.0,0.0,15.0
25.73,0.0,0.0,0.0,0.0,0.0,0.0,0.0,15.0
25.73,0.0,0.0,0.0,0.0,0.0,0.0,0.0,15.0
25.81,0.0,0.0,0.0,0.0,0.0,0.0,0.0,15.0
25.99,0.0,0.0,0.0,0.0,0.0,0.0,0.0,15.0
25.99,0.0,0.0,0.0,0.0,0.0,0.0,0.0,15.0
25.93,0.0,0.0,0.0,0.0,0.0,0.0,0.0,15.0
26.15,0.0,0.0,0.0,0.0,0.0,0.0,0.0,15.0
26.09,0.0,0.0,0.0,0.0,0.0,0.0,0.0,15.0
26.11,0.0,0.0,0.0,0.0,0.0,0.0,0.0,15.0
26.35,0.0,0.0,0.0,0.0,0.0,0.0,0.0,15.0
26.31,0.0,0.0,0.0,0.0,0.0,0.0,0.0,20.0
26.27,0.0,0.0,0.0,0.0,0.0,0.0,0.0,30.0
26.29,0.0,0.0,0.0,0.0,0.0,0.0,0.0,39.0
26.35,0.0,0.0,0.0,0.0,0.0,0.0,0.0,49.0
26.23,0.0,0.0,0.0,0.0,0.0,0.0,0.0,59.0
26.23,0.0,0.0,0.0,0.0,0.0,0.0,0.0,68.0
26.15,0.0,0.0,0.0,0.0,254.0,0.0,369.0,76.0
26.15,0.0,0.0,0.0,0.0,905.0,0.0,1786.0,87.0
26.15,0.0,0.0,0.0,0.0,907.0,0.0,2114.0,96.0
26.11,0.0,0.0,0.0,0.0,698.0,0.0,2144.0,100.0
26.15,0.0,6.0,0.0,0.0,528.0,0.0,2112.0,100.0
26.09,0.0,14.0,0.0,0.0,497.0,0.0,2094.0,100.0
26.17,0.0,16.0,0.0,0.0,458.0,0.0,2117.0,100.0
26.15,0.0,89.0,0.0,0.0,463.0,0.0,2108.0,100.0
26.09,0.0,16.0,0.0,0.0,462.0,0.0,2116.0,100.0
26.17,0.0,0.0,0.0,0.0,357.0,0.0,2050.0,100.0
26.05,0.0,0.0,0.0,0.0,369.0,0.0,2142.0,100.0
26.15,0.0,0.0,0.0,0.0,537.0,0.0,2240.0,100.0
26.17,0.0,0.0,0.0,0.0,489.0,0.0,2306.0,100.0
26.09,0.0,0.0,0.0,0.0,573.0,0.0,2120.0,100.0
26.09,0.0,0.0,0.0,0.0,544.0,0.0,2198.0,100.0
26.17,0.0,1.0,0.0,0.0,566.0,0.0,2062.0,100.0
26.09,0.0,19.0,0.0,0.0,560.0,0.0,2022.0,100.0
26.09,0.0,51.0,0.0,0.0,652.0,0.0,2045.0,100.0
26.17,0.0,55.0,0.0,0.0,713.0,0.0,1969.0,100.0
26.21,0.0,63.0,0.0,0.0,688.0,0.0,2017.0,100.0
26.27,0.0,48.0,0.0,0.0,770.0,0.0,2045.0,100.0
26.17,0.0,96.0,0.0,0.0,777.0,0.0,2100.0,100.0
26.29,0.0,80.0,0.0,0.0,775.0,0.0,2114.0,100.0
26.27,0.0,83.0,0.0,0.0,784.0,0.0,2124.0,100.0
26.27,0.0,58.0,0.0,0.0,702.0,0.0,2055.0,100.0
26.23,0.0,80.0,0.0,0.0,741.0,0.0,2092.0,100.0
26.21,0.0,94.0,0.0,0.0,737.0,0.0,2096.0,100.0
26.35,0.0,91.0,0.0,0.0,752.0,0.0,2112.0,100.0
26.27,0.0,108.0,0.0,0.0,752.0,0.0,2108.0,100.0
26.21,0.0,83.0,0.0,0.0,753.0,0.0,2117.0,100.0
26.23,0.0,86.0,0.0,0.0,759.0,0.0,2122.0,100.0
26.27,0.0,84.0,0.0,0.0,759.0,0.0,2125.0,100.0
26.27,0.0,81.0,0.0,0.0,767.0,0.0,2124.0,100.0
26.23,0.0,83.0,0.0,0.0,766.0,0.0,2133.0,100.0
26.23,0.0,85.0,0.0,0.0,763.0,0.0,2139.0,100.0
26.17,0.0,95.0,0.0,0.0,769.0,0.0,2133.0,100.0
26.23,0.0,77.0,0.0,0.0,765.0,0.0,2143.0,100.0
26.17,0.0,0.0,0.0,0.0,768.0,0.0,2148.0,100.0
26.23,0.0,116.0,0.0,0.0,672.0,0.0,2134.0,100.0
26.09,0.0,80.0,0.0,0.0,554.0,0.0,2031.0,100.0
26.17,0.0,34.0,0.0,0.0,769.0,0.0,1957.0,100.0
26.11,0.0,0.0,0.0,0.0,534.0,0.0,2173.0,100.0
26.11,0.0,0.0,0.0,0.0,576.0,0.0,2091.0,100.0
26.05,0.0,0.0,0.0,0.0,458.0,0.0,2162.0,100.0
26.11,0.0,0.0,0.0,0.0,496.0,0.0,2195.0,100.0
26.03,0.0,0.0,0.0,0.0,511.0,0.0,2227.0,100.0
26.11,0.0,0.0,0.0,0.0,560.0,0.0,2202.0,100.0
26.09,0.0,0.0,0.0,0.0,494.0,0.0,1858.0,100.0
26.11,0.0,0.0,0.0,0.0,423.0,0.0,2077.0,100.0
26.09,0.0,0.0,0.0,0.0,458.0,0.0,2300.0,100.0
26.09,0.0,0.0,0.0,0.0,491.0,0.0,2323.0,100.0
26.05,0.0,0.0,0.0,0.0,498.0,0.0,2358.0,100.0
26.11,0.0,0.0,0.0,0.0,494.0,0.0,2348.0,100.0
26.21,0.0,0.0,0.0,0.0,511.0,0.0,2371.0,100.0
26.05,0.0,0.0,0.0,0.0,522.0,0.0,2387.0,100.0
26.17,0.0,0.0,0.0,0.0,523.0,0.0,2396.0,100.0
26.17,0.0,0.0,0.0,0.0,528.0,0.0,2409.0,100.0
26.15,0.0,0.0,0.0,0.0,624.0,0.0,2411.0,100.0
26.11,0.0,0.0,0.0,0.0,528.0,0.0,2429.0,100.0
26.05,0.0,0.0,0.0,0.0,530.0,0.0,2426.0,100.0
26.09,0.0,0.0,0.0,0.0,538.0,0.0,2417.0,100.0
26.09,0.0,0.0,0.0,0.0,538.0,0.0,2425.0,100.0
26.21,0.0,0.0,0.0,0.0,539.0,0.0,2425.0,100.0
26.11,0.0,0.0,0.0,0.0,541.0,0.0,2428.0,100.0
26.11,0.0,0.0,0.0,0.0,530.0,0.0,2434.0,100.0
26.15,0.0,0.0,0.0,0.0,538.0,0.0,2432.0,100.0
26.17,0.0,0.0,0.0,0.0,529.0,0.0,2440.0,100.0
26.09,0.0,0.0,0.0,0.0,533.0,0.0,2443.0,100.0
26.17,0.0,0.0,0.0,0.0,540.0,0.0,2451.0,100.0
26.23,0.0,0.0,0.0,0.0,534.0,0.0,2444.0,100.0
26.17,0.0,0.0,0.0,0.0,531.0,0.0,2446.0,100.0
26.21,0.0,0.0,0.0,0.0,535.0,0.0,2447.0,100.0
26.21,0.0,0.0,0.0,0.0,539.0,0.0,2457.0,100.0
26.21,0.0,0.0,0.0,0.0,539.0,0.0,2452.0,100.0
26.15,0.0,0.0,0.0,0.0,540.0,0.0,2462.0,100.0
26.21,0.0,0.0,0.0,0.0,539.0,0.0,2466.0,100.0
26.17,0.0,0.0,0.0,0.0,531.0,0.0,2456.0,100.0
26.23,0.0,0.0,0.0,0.0,528.0,0.0,2459.0,100.0
26.17,0.0,0.0,0.0,0.0,592.0,0.0,2465.0,100.0
26.11,0.0,0.0,0.0,0.0,534.0,0.0,2466.0,100.0
26.17,0.0,0.0,0.0,0.0,538.0,0.0,2469.0,100.0
26.17,0.0,0.0,0.0,0.0,545.0,0.0,2472.0,100.0
26.21,0.0,0.0,0.0,0.0,547.0,0.0,2470.0,100.0
26.15,0.0,0.0,0.0,0.0,541.0,0.0,2467.0,100.0
26.09,0.0,0.0,0.0,0.0,529.0,0.0,2470.0,100.0
26.21,0.0,0.0,0.0,0.0,0.0,0.0,70.0,15.0
26.23,0.0,0.0,0.0,0.0,0.0,0.0,0.0,15.0
25.93,0.0,0.0,0.0,0.0,0.0,0.0,0.0,15.0
25.73,0.0,0.0,0.0,0.0,0.0,0.0,0.0,15.0
25.67,0.0,0.0,0.0,0.0,0.0,0.0,0.0,15.0
25.69,0.0,0.0,0.0,0.0,0.0,0.0,0.0,15.0
27.21,0.0,0.0,0.0,0.0,0.0,0.0,0.0,15.0
27.09,0.0,0.0,0.0,0.0,0.0,0.0,0.0,15.0
27.25,0.0,0.0,0.0,0.0,0.0,0.0,0.0,15.0
27.31,0.0,0.0,0.0,0.0,0.0,0.0,0.0,15.0
26.09,0.0,0.0,0.0,0.0,0.0,0.0,0.0,15.0
25.61,0.0,0.0,0.0,0.0,0.0,0.0,0.0,15.0
25.59,0.0,0.0,0.0,0.0,0.0,0.0,0.0,15.0
25.43,0.0,0.0,0.0,0.0,0.0,0.0,0.0,15.0
25.61,0.0,0.0,0.0,0.0,0.0,0.0,0.0,15.0
25.59,0.0,0.0,0.0,0.0,0.0,0.0,0.0,15.0
25.61,0.0,0.0,0.0,0.0,0.0,0.0,0.0,15.0
25.61,0.0,0.0,0.0,0.0,0.0,0.0,0.0,15.0
25.61,0.0,0.0,0.0,0.0,0.0,0.0,0.0,15.0
25.69,0.0,0.0,0.0,0.0,0.0,0.0,0.0,15.0
25.79,0.0,0.0,0.0,0.0,0.0,0.0,0.0,15.0
25.97,0.0,0.0,0.0,0.0,0.0,0.0,0.0,15.0
26.03,0.0,0.0,0.0,0.0,0.0,0.0,0.0,15.0
26.11,0.0,0.0,0.0,0.0,0.0,0.0,0.0,15.0
26.09,0.0,0.0,0.0,0.0,0.0,0.0,0.0,15.0
26.09,0.0,0.0,0.0,0.0,0.0,0.0,0.0,15.0
26.11,0.0,0.0,0.0,0.0,0.0,0.0,0.0,15.0
26.05,0.0,0.0,0.0,0.0,0.0,0.0,0.0,15.0
26.11,0.0,0.0,0.0,0.0,0.0,0.0,0.0,15.0
26.09,0.0,0.0,0.0,0.0,0.0,0.0,0.0,15.0
26.11,0.0,0.0,0.0,0.0,0.0,0.0,0.0,15.0
26.11,0.0,0.0,0.0,0.0,0.0,0.0,0.0,15.0
26.05,0.0,0.0,0.0,0.0,0.0,0.0,0.0,15.0
26.09,0.0,0.0,0.0,0.0,0.0,0.0,0.0,15.0
26.05,0.0,0.0,0.0,0.0,0.0,0.0,0.0,15.0
26.09,0.0,0.0,0.0,0.0,0.0,0.0,0.0,15.0
25.99,0.0,0.0,0.0,0.0,0.0,0.0,0.0,15.0
26.05,0.0,0.0,0.0,0.0,0.0,0.0,0.0,15.0
26.09,0.0,0.0,0.0,0.0,0.0,0.0,0.0,15.0
26.05,0.0,0.0,0.0,0.0,0.0,0.0,0.0,15.0
26.11,0.0,0.0,0.0,0.0,0.0,0.0,0.0,15.0
25.97,0.0,0.0,0.0,0.0,0.0,0.0,0.0,15.0
26.03,0.0,0.0,0.0,0.0,0.0,0.0,0.0,15.0
25.93,0.0,0.0,0.0,0.0,0.0,0.0,0.0,15.0
25.91,0.0,0.0,0.0,0.0,0.0,0.0,0.0,15.0
26.03,0.0,0.0,0.0,0.0,0.0,0.0,0.0,15.0
26.67,0.0,0.0,0.0,0.0,0.0,0.0,0.0,15.0
28.91,0.0,0.0,0.0,0.0,0.0,0.0,0.0,15.0
35.55,0.0,0.0,0.0,0.0,0.0,0.0,0.0,15.0
36.73,0.0,0.0,0.0,0.0,0.0,0.0,0.0,15.0
37.79,0.0,0.0,0.0,0.0,0.0,0.0,0.0,15.0
38.43,0.0,0.0,0.0,0.0,0.0,0.0,0.0,15.0
38.59,0.0,0.0,0.0,0.0,0.0,0.0,0.0,15.0
38.67,0.0,0.0,0.0,0.0,0.0,0.0,0.0,17.0
38.89,0.0,0.0,0.0,0.0,0.0,0.0,0.0,27.0
39.01,0.0,0.0,0.0,0.0,0.0,0.0,0.0,38.0
39.19,0.0,0.0,0.0,0.0,0.0,0.0,0.0,49.0
39.19,0.0,0.0,0.0,0.0,0.0,0.0,0.0,59.0
38.95,0.0,0.0,0.0,0.0,0.0,0.0,134.0,68.0
38.69,0.0,631.0,0.0,0.0,688.0,0.0,2627.0,79.0
38.53,0.0,654.0,0.0,0.0,705.0,0.0,2687.0,88.0
38.41,0.0,641.0,0.0,0.0,752.0,0.0,2718.0,97.0
38.41,0.0,714.0,0.0,0.0,591.0,0.0,2687.0,100.0
38.25,0.0,775.0,0.0,0.0,321.0,0.0,2632.0,100.0
38.19,0.0,784.0,0.0,0.0,499.0,0.0,2674.0,100.0
38.17,0.0,767.0,0.0,0.0,336.0,0.0,2669.0,100.0
38.05,0.0,796.0,0.0,0.0,337.0,0.0,2705.0,100.0
38.21,0.0,820.0,0.0,0.0,321.0,0.0,2721.0,100.0
38.29,0.0,784.0,0.0,0.0,361.0,0.0,2710.0,100.0
38.27,0.0,778.0,0.0,0.0,368.0,0.0,2713.0,100.0
38.21,0.0,643.0,0.0,0.0,327.0,0.0,2553.0,100.0
38.27,0.0,599.0,0.0,0.0,384.0,0.0,2557.0,100.0
38.27,0.0,599.0,0.0,0.0,398.0,0.0,2564.0,100.0
38.29,0.0,603.0,0.0,0.0,555.0,0.0,2536.0,100.0
38.37,0.0,629.0,0.0,0.0,650.0,0.0,2494.0,100.0
38.33,0.0,631.0,0.0,0.0,790.0,0.0,2467.0,100.0
38.33,0.0,640.0,0.0,0.0,887.0,0.0,2433.0,100.0
38.29,0.0,656.0,0.0,0.0,1034.0,0.0,2457.0,100.0
38.27,0.0,657.0,0.0,0.0,1048.0,0.0,2473.0,100.0
38.37,0.0,667.0,0.0,0.0,1053.0,0.0,2488.0,100.0
38.41,0.0,675.0,0.0,0.0,1071.0,0.0,2489.0,100.0
38.49,0.0,660.0,0.0,0.0,1066.0,0.0,2490.0,100.0
38.43,0.0,663.0,0.0,0.0,1075.0,0.0,2506.0,100.0
38.37,0.0,631.0,0.0,0.0,1074.0,0.0,2499.0,100.0
38.45,0.0,621.0,0.0,0.0,1060.0,0.0,2502.0,100.0
38.51,0.0,578.0,0.0,0.0,966.0,0.0,2498.0,100.0
38.45,0.0,657.0,0.0,0.0,818.0,0.0,2528.0,100.0
38.45,0.0,647.0,0.0,0.0,731.0,0.0,2526.0,100.0
38.49,0.0,640.0,0.0,0.0,701.0,0.0,2526.0,100.0
38.37,0.0,622.0,0.0,0.0,529.0,0.0,2572.0,100.0
38.49,0.0,618.0,0.0,0.0,566.0,0.0,2576.0,100.0
38.43,0.0,597.0,0.0,0.0,587.0,0.0,2581.0,100.0
38.49,0.0,605.0,0.0,0.0,608.0,0.0,2588.0,100.0
38.53,0.0,597.0,0.0,0.0,592.0,0.0,2589.0,100.0
38.45,0.0,592.0,0.0,0.0,573.0,0.0,2598.0,100.0
38.51,0.0,576.0,0.0,0.0,576.0,0.0,2598.0,100.0
38.53,0.0,528.0,0.0,0.0,491.0,0.0,2627.0,100.0
38.51,0.0,489.0,0.0,0.0,445.0,0.0,2641.0,100.0
38.55,0.0,490.0,0.0,0.0,359.0,0.0,2646.0,100.0
38.63,0.0,454.0,0.0,0.0,411.0,0.0,2649.0,100.0
38.63,0.0,442.0,0.0,0.0,368.0,0.0,2758.0,100.0
38.59,0.0,351.0,0.0,0.0,304.0,0.0,2797.0,100.0
38.61,0.0,354.0,0.0,0.0,310.0,0.0,2818.0,100.0
38.55,0.0,366.0,0.0,0.0,316.0,0.0,2819.0,100.0
38.41,0.0,373.0,0.0,0.0,321.0,0.0,2825.0,100.0
38.29,0.0,337.0,0.0,0.0,306.0,0.0,2829.0,100.0
38.29,0.0,273.0,0.0,0.0,304.0,0.0,2860.0,100.0
38.35,0.0,252.0,0.0,0.0,327.0,0.0,2913.0,100.0
38.29,0.0,240.0,0.0,0.0,269.0,0.0,2865.0,100.0
38.29,0.0,192.0,0.0,0.0,257.0,0.0,2908.0,100.0
38.29,0.0,246.0,0.0,0.0,290.0,0.0,2908.0,100.0
38.29,0.0,256.0,0.0,0.0,292.0,0.0,2909.0,100.0
38.33,0.0,253.0,0.0,0.0,288.0,0.0,2917.0,100.0
38.29,0.0,257.0,0.0,0.0,291.0,0.0,2916.0,100.0
38.29,0.0,327.0,0.0,0.0,301.0,0.0,2921.0,100.0
38.29,0.0,253.0,0.0,0.0,295.0,0.0,2927.0,100.0
38.33,0.0,266.0,0.0,0.0,293.0,0.0,2924.0,100.0
38.33,0.0,242.0,0.0,0.0,301.0,0.0,2931.0,100.0
38.35,0.0,256.0,0.0,0.0,302.0,0.0,2927.0,100.0
38.33,0.0,253.0,0.0,0.0,301.0,0.0,2933.0,100.0
38.29,0.0,265.0,0.0,0.0,304.0,0.0,2935.0,100.0
38.29,0.0,262.0,0.0,0.0,368.0,0.0,2939.0,100.0
38.29,0.0,250.0,0.0,0.0,301.0,0.0,2934.0,100.0
38.19,0.0,267.0,0.0,0.0,301.0,0.0,2938.0,100.0
38.17,0.0,247.0,0.0,0.0,305.0,0.0,2937.0,100.0
38.11,0.0,271.0,0.0,0.0,295.0,0.0,2943.0,100.0
38.17,0.0,260.0,0.0,0.0,304.0,0.0,2946.0,100.0
38.19,0.0,256.0,0.0,0.0,294.0,0.0,2943.0,100.0
38.19,0.0,290.0,0.0,0.0,290.0,0.0,2944.0,100.0
38.17,0.0,273.0,0.0,0.0,304.0,0.0,2945.0,100.0
38.21,0.0,277.0,0.0,0.0,303.0,0.0,2947.0,100.0
38.17,0.0,254.0,0.0,0.0,294.0,0.0,2949.0,100.0
38.19,0.0,272.0,0.0,0.0,300.0,0.0,2958.0,100.0
38.25,0.0,272.0,0.0,0.0,301.0,0.0,2951.0,100.0
38.21,0.0,269.0,0.0,0.0,294.0,0.0,2960.0,100.0
38.19,0.0,273.0,0.0,0.0,300.0,0.0,2950.0,100.0
38.19,0.0,265.0,0.0,0.0,295.0,0.0,2957.0,100.0
38.17,0.0,276.0,0.0,0.0,292.0,0.0,2954.0,100.0
38.11,0.0,270.0,0.0,0.0,343.0,0.0,2948.0,100.0
38.01,0.0,272.0,0.0,0.0,292.0,0.0,2962.0,100.0
38.11,0.0,271.0,0.0,0.0,289.0,0.0,2961.0,100.0
38.11,0.0,269.0,0.0,0.0,290.0,0.0,2952.0,100.0
38.13,0.0,277.0,0.0,0.0,295.0,0.0,2963.0,100.0
38.11,0.0,86.0,0.0,0.0,291.0,0.0,2964.0,100.0
38.11,0.0,298.0,0.0,0.0,297.0,0.0,2965.0,100.0
38.09,0.0,267.0,0.0,0.0,295.0,0.0,2969.0,100.0
38.21,0.0,0.0,0.0,0.0,0.0,0.0,218.0,15.0
32.05,0.0,0.0,0.0,0.0,0.0,0.0,0.0,15.0
26.35,0.0,0.0,0.0,0.0,0.0,0.0,0.0,15.0
26.11,0.0,0.0,0.0,0.0,0.0,0.0,0.0,15.0
26.11,0.0,0.0,0.0,0.0,0.0,0.0,0.0,15.0
25.99,0.0,0.0,0.0,0.0,0.0,0.0,0.0,15.0
25.93,0.0,0.0,0.0,0.0,0.0,0.0,0.0,15.0
25.87,0.0,0.0,0.0,0.0,0.0,0.0,0.0,15.0
25.81,0.0,0.0,0.0,0.0,0.0,0.0,0.0,15.0
25.93,0.0,0.0,0.0,0.0,0.0,0.0,0.0,15.0
25.91,0.0,0.0,0.0,0.0,0.0,0.0,0.0,15.0
25.99,0.0,0.0,0.0,0.0,0.0,0.0,0.0,15.0
26.29,0.0,0.0,0.0,0.0,0.0,0.0,0.0,15.0
26.31,0.0,0.0,0.0,0.0,0.0,0.0,0.0,15.0
26.43,0.0,0.0,0.0,0.0,0.0,0.0,0.0,15.0
27.03,0.0,0.0,0.0,0.0,0.0,0.0,0.0,15.0
26.17,0.0,0.0,0.0,0.0,0.0,0.0,0.0,15.0
25.69,0.0,0.0,0.0,0.0,0.0,0.0,0.0,15.0
25.75,0.0,0.0,0.0,0.0,0.0,0.0,0.0,15.0
25.73,0.0,0.0,0.0,0.0,0.0,0.0,0.0,15.0
25.73,0.0,0.0,0.0,0.0,0.0,0.0,0.0,15.0
25.73,0.0,0.0,0.0,0.0,0.0,0.0,0.0,15.0
25.69,0.0,0.0,0.0,0.0,0.0,0.0,0.0,15.0
25.79,0.0,0.0,0.0,0.0,0.0,0.0,0.0,15.0
25.73,0.0,0.0,0.0,0.0,0.0,0.0,0.0,15.0
25.81,0.0,0.0,0.0,0.0,0.0,0.0,0.0,15.0
25.73,0.0,0.0,0.0,0.0,0.0,0.0,0.0,15.0
25.81,0.0,0.0,0.0,0.0,0.0,0.0,0.0,15.0
25.79,0.0,0.0,0.0,0.0,0.0,0.0,0.0,15.0
25.85,0.0,0.0,0.0,0.0,0.0,0.0,0.0,15.0
25.91,0.0,0.0,0.0,0.0,0.0,0.0,0.0,15.0
25.87,0.0,0.0,0.0,0.0,0.0,0.0,0.0,15.0
25.91,0.0,0.0,0.0,0.0,0.0,0.0,0.0,15.0
25.85,0.0,0.0,0.0,0.0,0.0,0.0,0.0,15.0
25.91,0.0,0.0,0.0,0.0,0.0,0.0,0.0,15.0
25.85,0.0,0.0,0.0,0.0,0.0,0.0,0.0,15.0
25.81,0.0,0.0,0.0,0.0,0.0,0.0,0.0,15.0
25.87,0.0,0.0,0.0,0.0,0.0,0.0,0.0,15.0
25.91,0.0,0.0,0.0,0.0,0.0,0.0,0.0,15.0
25.85,0.0,0.0,0.0,0.0,0.0,0.0,0.0,15.0
25.91,0.0,0.0,0.0,0.0,0.0,0.0,0.0,15.0
25.93,0.0,0.0,0.0,0.0,0.0,0.0,0.0,15.0
25.91,0.0,0.0,0.0,0.0,0.0,0.0,0.0,15.0
25.97,0.0,0.0,0.0,0.0,0.0,0.0,0.0,15.0
25.91,0.0,0.0,0.0,0.0,0.0,0.0,0.0,15.0
25.85,0.0,0.0,0.0,0.0,0.0,0.0,0.0,15.0
25.91,0.0,0.0,0.0,0.0,0.0,0.0,0.0,15.0
25.91,0.0,0.0,0.0,0.0,0.0,0.0,0.0,15.0
25.85,0.0,0.0,0.0,0.0,0.0,0.0,0.0,15.0
26.55,0.0,0.0,0.0,0.0,0.0,0.0,0.0,15.0
28.13,0.0,0.0,0.0,0.0,0.0,0.0,0.0,15.0
28.85,0.0,0.0,0.0,0.0,0.0,0.0,0.0,15.0
29.05,0.0,0.0,0.0,0.0,0.0,0.0,0.0,15.0
28.77,0.0,0.0,0.0,0.0,0.0,0.0,0.0,15.0
28.77,0.0,0.0,0.0,0.0,0.0,0.0,0.0,18.0
28.83,0.0,0.0,0.0,0.0,0.0,0.0,0.0,27.0
28.47,0.0,0.0,0.0,0.0,0.0,0.0,0.0,36.0
28.27,0.0,0.0,0.0,0.0,0.0,0.0,0.0,47.0
28.17,0.0,0.0,0.0,0.0,0.0,0.0,0.0,56.0
27.75,0.0,0.0,0.0,0.0,0.0,0.0,0.0,66.0
27.37,0.0,0.0,0.0,0.0,0.0,0.0,17.0,76.0
27.37,0.0,0.0,0.0,0.0,0.0,0.0,2060.0,86.0
27.31,0.0,0.0,0.0,0.0,0.0,0.0,2320.0,96.0
27.35,0.0,0.0,0.0,0.0,0.0,0.0,2381.0,100.0
27.31,0.0,0.0,0.0,0.0,0.0,0.0,2417.0,100.0
27.23,0.0,0.0,0.0,0.0,0.0,0.0,2445.0,100.0
27.23,0.0,0.0,0.0,0.0,0.0,0.0,2461.0,100.0
27.15,0.0,0.0,0.0,0.0,0.0,0.0,2482.0,100.0
27.15,0.0,0.0,0.0,0.0,0.0,0.0,2473.0,100.0
27.17,0.0,0.0,0.0,0.0,0.0,0.0,2472.0,100.0
27.15,0.0,0.0,0.0,0.0,0.0,0.0,2476.0,100.0
27.15,0.0,0.0,0.0,0.0,0.0,0.0,2375.0,100.0
27.15,0.0,0.0,0.0,0.0,0.0,0.0,2378.0,100.0
27.17,0.0,0.0,0.0,0.0,0.0,0.0,2374.0,100.0
27.21,0.0,0.0,0.0,0.0,0.0,0.0,2385.0,100.0
27.11,0.0,0.0,0.0,0.0,0.0,0.0,2359.0,100.0
27.17,0.0,0.0,0.0,0.0,0.0,0.0,2360.0,100.0
27.09,0.0,0.0,0.0,0.0,0.0,0.0,2354.0,100.0
27.15,0.0,0.0,0.0,0.0,0.0,0.0,2366.0,100.0
27.05,0.0,0.0,0.0,0.0,0.0,0.0,2365.0,100.0
27.11,0.0,0.0,0.0,0.0,0.0,0.0,2370.0,100.0
27.11,0.0,0.0,0.0,0.0,0.0,0.0,2379.0,100.0
27.09,0.0,0.0,0.0,0.0,0.0,0.0,2376.0,100.0
27.11,0.0,0.0,0.0,0.0,0.0,0.0,2382.0,100.0
27.03,0.0,0.0,0.0,0.0,0.0,0.0,2383.0,100.0
26.97,0.0,0.0,0.0,0.0,0.0,0.0,2380.0,100.0
26.93,0.0,0.0,0.0,0.0,0.0,0.0,2405.0,100.0
26.93,10.0,0.0,0.0,0.0,0.0,0.0,2406.0,100.0
26.93,0.0,0.0,0.0,0.0,0.0,0.0,2406.0,100.0
26.93,0.0,0.0,0.0,0.0,0.0,0.0,2396.0,100.0
26.91,0.0,0.0,0.0,0.0,0.0,0.0,2416.0,100.0
26.97,0.0,0.0,0.0,0.0,0.0,0.0,2421.0,100.0
26.93,0.0,0.0,0.0,0.0,0.0,0.0,2415.0,100.0
26.97,0.0,0.0,0.0,0.0,0.0,0.0,2433.0,100.0
26.93,0.0,0.0,0.0,0.0,0.0,0.0,2423.0,100.0
26.97,0.0,0.0,0.0,0.0,0.0,0.0,2434.0,100.0
26.99,0.0,0.0,0.0,0.0,0.0,0.0,2447.0,100.0
26.99,0.0,0.0,0.0,0.0,0.0,0.0,2450.0,100.0
26.97,0.0,0.0,0.0,0.0,0.0,0.0,2436.0,100.0
26.91,0.0,0.0,0.0,0.0,0.0,0.0,2444.0,100.0
26.83,0.0,0.0,0.0,0.0,0.0,0.0,2442.0,100.0
26.83,0.0,0.0,0.0,0.0,0.0,0.0,2450.0,100.0
26.79,0.0,0.0,0.0,0.0,0.0,0.0,2442.0,100.0
26.77,0.0,0.0,0.0,0.0,0.0,0.0,2444.0,100.0
26.85,0.0,0.0,0.0,0.0,0.0,0.0,2443.0,100.0
26.91,0.0,0.0,0.0,0.0,0.0,0.0,2446.0,100.0
26.83,0.0,0.0,0.0,0.0,0.0,0.0,2445.0,100.0
26.85,0.0,0.0,0.0,0.0,0.0,0.0,2449.0,100.0
26.87,0.0,0.0,0.0,0.0,0.0,0.0,2448.0,100.0
26.87,0.0,0.0,0.0,0.0,0.0,0.0,2451.0,100.0
26.83,0.0,0.0,0.0,0.0,0.0,0.0,2455.0,100.0
26.77,0.0,0.0,0.0,0.0,0.0,0.0,2463.0,100.0
26.77,0.0,0.0,0.0,0.0,0.0,0.0,2453.0,100.0
26.79,0.0,0.0,0.0,0.0,0.0,0.0,2446.0,100.0
26.77,0.0,0.0,0.0,0.0,0.0,0.0,2443.0,100.0
26.73,0.0,0.0,0.0,0.0,0.0,0.0,2461.0,100.0
26.79,0.0,0.0,0.0,0.0,0.0,0.0,2458.0,100.0
26.73,0.0,0.0,0.0,0.0,0.0,0.0,2455.0,100.0
26.83,0.0,0.0,0.0,0.0,0.0,0.0,2455.0,100.0
26.77,0.0,0.0,0.0,0.0,0.0,0.0,2462.0,100.0
26.79,0.0,0.0,0.0,0.0,0.0,0.0,2457.0,100.0
26.79,0.0,0.0,0.0,0.0,0.0,0.0,2463.0,100.0
26.73,0.0,0.0,0.0,0.0,0.0,0.0,2457.0,100.0
26.85,0.0,0.0,0.0,0.0,0.0,0.0,2469.0,100.0
26.79,0.0,0.0,0.0,0.0,0.0,0.0,2453.0,100.0
26.83,0.0,0.0,0.0,0.0,0.0,0.0,2462.0,100.0
26.87,0.0,0.0,0.0,0.0,0.0,0.0,2456.0,100.0
26.79,0.0,0.0,0.0,0.0,0.0,0.0,2470.0,100.0
26.79,0.0,0.0,0.0,0.0,0.0,0.0,2461.0,100.0
26.77,0.0,0.0,0.0,0.0,0.0,0.0,2462.0,100.0
26.85,0.0,0.0,0.0,0.0,0.0,0.0,2465.0,100.0
26.65,0.0,0.0,0.0,0.0,0.0,0.0,2465.0,100.0
26.73,0.0,0.0,0.0,0.0,0.0,0.0,2471.0,100.0
26.71,0.0,0.0,0.0,0.0,0.0,0.0,2466.0,100.0
26.73,0.0,0.0,0.0,0.0,0.0,0.0,2467.0,100.0
26.71,0.0,0.0,0.0,0.0,0.0,0.0,2467.0,100.0
26.73,0.0,0.0,0.0,0.0,0.0,0.0,2462.0,100.0
26.77,0.0,0.0,0.0,0.0,0.0,0.0,2461.0,100.0
26.67,0.0,0.0,0.0,0.0,0.0,0.0,2478.0,100.0
26.67,0.0,0.0,0.0,0.0,0.0,0.0,2472.0,100.0
26.67,0.0,0.0,0.0,0.0,0.0,0.0,2474.0,100.0
26.61,0.0,0.0,0.0,0.0,0.0,0.0,2474.0,100.0
26.53,0.0,0.0,0.0,0.0,0.0,0.0,2474.0,100.0
26.49,0.0,0.0,0.0,0.0,0.0,0.0,2480.0,100.0
26.53,0.0,0.0,0.0,0.0,0.0,0.0,2468.0,100.0
26.53,0.0,0.0,0.0,0.0,0.0,0.0,0.0,15.0
26.71,0.0,0.0,0.0,0.0,0.0,0.0,0.0,15.0
25.49,0.0,0.0,0.0,0.0,0.0,0.0,0.0,15.0
25.53,0.0,0.0,0.0,0.0,0.0,0.0,0.0,15.0
25.55,0.0,0.0,0.0,0.0,0.0,0.0,0.0,15.0
25.49,0.0,0.0,0.0,0.0,0.0,0.0,0.0,15.0
25.63,0.0,0.0,0.0,0.0,0.0,0.0,0.0,15.0
25.59,0.0,0.0,0.0,0.0,0.0,0.0,0.0,15.0
25.59,0.0,0.0,0.0,0.0,0.0,0.0,0.0,15.0
25.61,0.0,0.0,0.0,0.0,0.0,0.0,0.0,15.0
25.61,0.0,0.0,0.0,0.0,0.0,0.0,0.0,15.0
25.61,0.0,0.0,0.0,0.0,0.0,0.0,0.0,15.0
25.61,0.0,0.0,0.0,0.0,0.0,0.0,0.0,15.0
25.61,0.0,0.0,0.0,0.0,0.0,0.0,0.0,15.0
25.59,0.0,0.0,0.0,0.0,0.0,0.0,0.0,15.0
25.55,0.0,0.0,0.0,0.0,0.0,0.0,0.0,15.0
25.61,0.0,0.0,0.0,0.0,0.0,0.0,0.0,15.0
25.61,0.0,0.0,0.0,0.0,0.0,0.0,0.0,15.0
25.73,0.0,0.0,0.0,0.0,0.0,0.0,0.0,15.0
25.81,0.0,0.0,0.0,0.0,0.0,0.0,0.0,15.0
25.69,0.0,0.0,0.0,0.0,0.0,0.0,0.0,15.0
25.91,0.0,0.0,0.0,0.0,0.0,0.0,0.0,15.0
26.03,0.0,0.0,0.0,0.0,0.0,0.0,0.0,15.0
25.91,0.0,0.0,0.0,0.0,0.0,0.0,0.0,15.0
25.91,0.0,0.0,0.0,0.0,0.0,0.0,0.0,15.0
25.97,0.0,0.0,0.0,0.0,0.0,0.0,0.0,15.0
25.81,0.0,0.0,0.0,0.0,0.0,0.0,0.0,15.0
25.69,0.0,0.0,0.0,0.0,0.0,0.0,0.0,15.0
25.49,0.0,0.0,0.0,0.0,0.0,0.0,0.0,15.0
25.55,0.0,0.0,0.0,0.0,0.0,0.0,0.0,15.0
