tempMLX,FSR_A1,FSR_A2,FSR_A3,FSR_B1,FSR_B2,FSR_B3,FSR_C,porcAper
0.0,0.0,0.0,0.0,0.0,0.0,0.0,0.0,15.0
0.0,0.0,0.0,0.0,0.0,0.0,0.0,0.0,15.0
0.0,0.0,0.0,0.0,0.0,0.0,0.0,0.0,15.0
24.93,0.0,0.0,0.0,0.0,0.0,0.0,0.0,15.0
24.93,0.0,0.0,0.0,0.0,0.0,0.0,0.0,15.0
24.93,0.0,0.0,0.0,0.0,0.0,0.0,0.0,15.0
24.83,0.0,0.0,0.0,0.0,0.0,0.0,0.0,15.0
24.83,0.0,0.0,0.0,0.0,0.0,0.0,0.0,15.0
24.87,0.0,0.0,0.0,0.0,0.0,0.0,0.0,15.0
24.89,0.0,0.0,0.0,0.0,0.0,0.0,0.0,15.0
24.93,0.0,0.0,0.0,0.0,0.0,0.0,0.0,15.0
25.01,0.0,0.0,0.0,147.0,0.0,0.0,0.0,15.0
24.95,0.0,0.0,0.0,0.0,0.0,0.0,0.0,15.0
25.01,0.0,0.0,0.0,0.0,0.0,0.0,0.0,15.0
25.01,0.0,0.0,0.0,0.0,0.0,0.0,0.0,15.0
24.99,0.0,0.0,0.0,0.0,0.0,0.0,0.0,15.0
24.89,0.0,0.0,0.0,0.0,0.0,0.0,0.0,15.0
25.01,0.0,0.0,0.0,0.0,0.0,0.0,0.0,15.0
24.93,0.0,0.0,0.0,0.0,0.0,0.0,0.0,15.0
25.11,0.0,0.0,0.0,0.0,0.0,0.0,0.0,15.0
25.11,0.0,0.0,0.0,0.0,0.0,0.0,0.0,15.0
25.01,0.0,0.0,0.0,0.0,0.0,0.0,0.0,15.0
25.05,0.0,0.0,0.0,0.0,0.0,0.0,0.0,15.0
25.07,0.0,0.0,0.0,0.0,0.0,0.0,0.0,15.0
24.95,0.0,0.0,0.0,0.0,0.0,0.0,0.0,15.0
25.01,0.0,0.0,0.0,0.0,0.0,0.0,0.0,15.0
24.93,0.0,0.0,0.0,0.0,0.0,0.0,0.0,15.0
24.99,0.0,0.0,0.0,0.0,0.0,0.0,0.0,15.0
25.01,0.0,0.0,0.0,0.0,0.0,0.0,0.0,15.0
24.87,0.0,0.0,0.0,0.0,0.0,0.0,0.0,15.0
24.83,0.0,0.0,0.0,0.0,0.0,0.0,0.0,15.0
24.87,0.0,0.0,0.0,0.0,0.0,0.0,0.0,15.0
24.75,0.0,0.0,0.0,0.0,0.0,0.0,0.0,15.0
24.83,0.0,0.0,0.0,0.0,0.0,0.0,0.0,15.0
24.83,0.0,0.0,0.0,0.0,0.0,0.0,0.0,15.0
24.89,0.0,0.0,0.0,0.0,0.0,0.0,0.0,15.0
24.87,0.0,0.0,0.0,0.0,0.0,0.0,0.0,15.0
24.83,0.0,0.0,0.0,0.0,0.0,0.0,0.0,15.0
24.83,0.0,0.0,0.0,0.0,0.0,0.0,0.0,15.0
24.89,0.0,0.0,0.0,0.0,0.0,0.0,0.0,15.0
24.89,0.0,0.0,0.0,0.0,0.0,0.0,0.0,15.0
24.95,0.0,0.0,0.0,0.0,0.0,0.0,0.0,15.0
24.81,0.0,0.0,0.0,0.0,0.0,0.0,0.0,15.0
24.83,0.0,0.0,0.0,0.0,0.0,0.0,0.0,15.0
24.83,0.0,0.0,0.0,0.0,0.0,0.0,0.0,15.0
24.81,0.0,0.0,0.0,0.0,0.0,0.0,0.0,15.0
24.83,0.0,0.0,0.0,0.0,0.0,0.0,0.0,15.0
24.89,0.0,0.0,0.0,0.0,0.0,0.0,0.0,15.0
24.87,0.0,0.0,0.0,0.0,0.0,0.0,0.0,15.0
24.95,0.0,0.0,0.0,0.0,0.0,0.0,0.0,15.0
24.89,0.0,0.0,0.0,0.0,0.0,0.0,0.0,15.0
24.93,0.0,0.0,0.0,0.0,0.0,0.0,0.0,15.0
24.87,0.0,0.0,0.0,0.0,0.0,0.0,0.0,15.0
24.93,0.0,0.0,0.0,0.0,0.0,0.0,0.0,15.0
24.87,0.0,0.0,0.0,0.0,0.0,0.0,0.0,15.0
24.87,0.0,0.0,0.0,0.0,0.0,0.0,0.0,15.0
24.89,0.0,0.0,0.0,0.0,0.0,0.0,0.0,15.0
24.83,0.0,0.0,0.0,0.0,0.0,0.0,0.0,15.0
24.95,0.0,0.0,0.0,0.0,0.0,0.0,0.0,15.0
24.93,0.0,0.0,0.0,0.0,0.0,0.0,0.0,15.0
24.89,0.0,0.0,0.0,0.0,0.0,0.0,0.0,15.0
24.87,0.0,0.0,0.0,0.0,0.0,0.0,0.0,15.0
24.89,0.0,0.0,0.0,0.0,0.0,0.0,0.0,15.0
24.87,0.0,0.0,0.0,0.0,0.0,0.0,0.0,15.0
24.83,0.0,0.0,0.0,0.0,0.0,0.0,0.0,15.0
24.87,0.0,0.0,0.0,0.0,0.0,0.0,0.0,15.0
24.83,0.0,0.0,0.0,0.0,0.0,0.0,0.0,15.0
24.83,0.0,0.0,0.0,0.0,0.0,0.0,0.0,15.0
24.83,0.0,0.0,0.0,0.0,0.0,0.0,0.0,15.0
24.83,0.0,0.0,0.0,0.0,0.0,0.0,0.0,15.0
24.83,0.0,0.0,0.0,0.0,0.0,0.0,0.0,15.0
24.83,0.0,0.0,0.0,0.0,0.0,0.0,0.0,15.0
24.87,0.0,0.0,0.0,0.0,0.0,0.0,0.0,15.0
24.81,0.0,0.0,0.0,0.0,0.0,0.0,0.0,15.0
24.87,0.0,0.0,0.0,0.0,0.0,0.0,0.0,15.0
24.83,0.0,0.0,0.0,0.0,0.0,0.0,0.0,15.0
24.87,0.0,0.0,0.0,0.0,0.0,0.0,0.0,15.0
24.87,0.0,0.0,0.0,0.0,0.0,0.0,0.0,15.0
24.89,0.0,0.0,0.0,0.0,0.0,0.0,0.0,15.0
24.83,0.0,0.0,0.0,0.0,0.0,0.0,0.0,15.0
24.95,0.0,0.0,0.0,0.0,0.0,0.0,0.0,15.0
24.89,0.0,32.0,0.0,0.0,0.0,0.0,0.0,15.0
24.99,0.0,0.0,0.0,0.0,0.0,0.0,0.0,15.0
24.83,0.0,0.0,0.0,0.0,0.0,0.0,0.0,15.0
24.89,0.0,0.0,0.0,0.0,0.0,0.0,0.0,15.0
24.87,0.0,0.0,0.0,0.0,0.0,0.0,0.0,15.0
24.87,0.0,0.0,0.0,0.0,0.0,0.0,0.0,15.0
24.93,0.0,0.0,0.0,0.0,0.0,0.0,0.0,15.0
24.87,0.0,0.0,0.0,0.0,0.0,0.0,0.0,15.0
24.83,0.0,0.0,0.0,0.0,0.0,0.0,0.0,15.0
24.89,0.0,0.0,0.0,0.0,0.0,0.0,0.0,15.0
24.89,0.0,0.0,0.0,0.0,0.0,0.0,0.0,15.0
24.89,0.0,0.0,0.0,0.0,0.0,0.0,0.0,15.0
24.87,0.0,0.0,0.0,0.0,0.0,0.0,0.0,15.0
24.83,0.0,0.0,0.0,0.0,0.0,0.0,0.0,15.0
24.83,0.0,0.0,0.0,0.0,0.0,0.0,0.0,15.0
24.81,0.0,0.0,0.0,0.0,0.0,0.0,0.0,15.0
24.81,0.0,0.0,0.0,0.0,0.0,0.0,0.0,15.0
24.87,0.0,0.0,0.0,0.0,0.0,0.0,0.0,15.0
24.83,0.0,0.0,0.0,0.0,0.0,0.0,0.0,15.0
24.83,0.0,0.0,0.0,0.0,0.0,0.0,0.0,15.0
24.83,0.0,0.0,0.0,0.0,0.0,0.0,0.0,15.0
24.89,0.0,0.0,0.0,0.0,0.0,0.0,0.0,15.0
24.87,0.0,0.0,0.0,0.0,0.0,0.0,0.0,15.0
24.89,0.0,0.0,0.0,0.0,0.0,0.0,0.0,15.0
24.95,0.0,0.0,0.0,0.0,0.0,0.0,0.0,15.0
24.89,0.0,0.0,0.0,0.0,0.0,0.0,0.0,15.0
24.93,0.0,0.0,0.0,0.0,0.0,0.0,0.0,15.0
24.81,0.0,0.0,0.0,0.0,0.0,0.0,0.0,15.0
24.75,0.0,0.0,0.0,0.0,0.0,0.0,0.0,15.0
24.77,0.0,0.0,0.0,0.0,0.0,0.0,0.0,15.0
24.69,0.0,0.0,0.0,0.0,0.0,0.0,0.0,15.0
24.71,0.0,0.0,0.0,0.0,0.0,0.0,0.0,15.0
24.69,0.0,0.0,0.0,0.0,0.0,0.0,0.0,15.0
24.71,0.0,0.0,0.0,0.0,0.0,0.0,0.0,15.0
24.71,0.0,0.0,0.0,0.0,0.0,0.0,0.0,15.0
24.69,0.0,0.0,0.0,0.0,0.0,0.0,0.0,15.0
24.75,0.0,0.0,0.0,0.0,0.0,0.0,0.0,15.0
24.89,0.0,0.0,0.0,0.0,0.0,0.0,0.0,15.0
25.11,0.0,0.0,0.0,0.0,0.0,0.0,0.0,15.0
25.17,0.0,0.0,0.0,0.0,0.0,0.0,0.0,15.0
25.25,0.0,0.0,0.0,0.0,0.0,0.0,0.0,15.0
25.23,0.0,0.0,0.0,0.0,0.0,0.0,0.0,15.0
25.19,0.0,0.0,0.0,0.0,0.0,0.0,0.0,15.0
25.23,0.0,0.0,0.0,0.0,0.0,0.0,0.0,15.0
25.11,0.0,0.0,0.0,0.0,0.0,0.0,0.0,15.0
25.07,0.0,0.0,0.0,0.0,0.0,0.0,0.0,15.0
25.05,0.0,0.0,0.0,0.0,0.0,0.0,0.0,15.0
24.99,0.0,0.0,0.0,0.0,0.0,0.0,0.0,15.0
25.01,0.0,0.0,0.0,0.0,0.0,0.0,0.0,15.0
24.95,0.0,0.0,0.0,0.0,0.0,0.0,0.0,15.0
24.93,0.0,0.0,0.0,0.0,0.0,0.0,0.0,15.0
24.87,0.0,0.0,0.0,0.0,0.0,0.0,0.0,15.0
24.89,0.0,0.0,0.0,0.0,0.0,0.0,0.0,15.0
24.87,0.0,0.0,0.0,0.0,0.0,0.0,0.0,15.0
24.87,0.0,0.0,0.0,0.0,0.0,0.0,0.0,15.0
24.81,0.0,0.0,0.0,0.0,0.0,0.0,0.0,15.0
24.89,0.0,0.0,0.0,0.0,0.0,0.0,0.0,15.0
24.89,0.0,0.0,0.0,0.0,0.0,0.0,0.0,15.0
24.81,0.0,0.0,0.0,0.0,0.0,0.0,0.0,15.0
24.93,0.0,0.0,0.0,0.0,0.0,0.0,0.0,15.0
24.87,0.0,0.0,0.0,0.0,0.0,0.0,0.0,15.0
24.87,0.0,0.0,0.0,0.0,0.0,0.0,0.0,15.0
25.07,0.0,0.0,0.0,0.0,0.0,0.0,0.0,15.0
25.13,0.0,0.0,0.0,0.0,0.0,0.0,0.0,15.0
25.11,0.0,0.0,0.0,0.0,0.0,0.0,0.0,15.0
25.11,0.0,0.0,0.0,0.0,0.0,0.0,0.0,15.0
24.83,0.0,0.0,0.0,0.0,0.0,0.0,0.0,15.0
24.83,0.0,0.0,0.0,0.0,0.0,0.0,0.0,15.0
24.83,0.0,0.0,0.0,0.0,0.0,0.0,0.0,15.0
24.89,0.0,0.0,0.0,0.0,0.0,0.0,0.0,15.0
24.87,0.0,0.0,0.0,0.0,0.0,0.0,0.0,23.0
24.83,0.0,0.0,0.0,0.0,0.0,0.0,0.0,32.0
24.77,0.0,0.0,0.0,0.0,0.0,0.0,0.0,42.0
24.81,0.0,0.0,0.0,0.0,0.0,0.0,0.0,52.0
24.81,0.0,0.0,0.0,0.0,0.0,0.0,0.0,61.0
24.83,0.0,0.0,0.0,0.0,0.0,0.0,0.0,72.0
24.75,0.0,0.0,0.0,0.0,0.0,0.0,0.0,83.0
24.69,0.0,0.0,0.0,0.0,0.0,0.0,0.0,90.0
24.71,0.0,0.0,0.0,0.0,0.0,0.0,0.0,90.0
24.71,0.0,0.0,0.0,0.0,0.0,0.0,0.0,90.0
24.77,0.0,0.0,0.0,0.0,0.0,0.0,0.0,90.0
24.75,0.0,0.0,0.0,0.0,0.0,0.0,0.0,90.0
24.77,0.0,0.0,0.0,0.0,0.0,0.0,0.0,90.0
24.77,0.0,0.0,0.0,0.0,0.0,0.0,0.0,90.0
24.75,0.0,0.0,0.0,0.0,0.0,0.0,0.0,90.0
24.77,0.0,0.0,0.0,0.0,0.0,0.0,0.0,90.0
24.71,0.0,0.0,0.0,0.0,0.0,0.0,0.0,90.0
24.81,0.0,0.0,0.0,0.0,0.0,0.0,0.0,90.0
24.75,0.0,0.0,0.0,0.0,0.0,0.0,0.0,90.0
24.75,0.0,0.0,0.0,0.0,0.0,0.0,0.0,90.0
24.69,0.0,0.0,0.0,0.0,0.0,0.0,0.0,90.0
24.69,0.0,0.0,0.0,0.0,0.0,0.0,0.0,90.0
24.71,0.0,0.0,0.0,0.0,0.0,0.0,0.0,90.0
24.71,0.0,0.0,0.0,0.0,0.0,0.0,0.0,90.0
24.65,0.0,0.0,0.0,0.0,0.0,0.0,0.0,90.0
24.65,0.0,0.0,0.0,0.0,0.0,0.0,0.0,90.0
24.63,0.0,0.0,0.0,0.0,0.0,0.0,0.0,90.0
24.59,0.0,0.0,0.0,0.0,0.0,0.0,0.0,90.0
24.59,0.0,0.0,0.0,0.0,0.0,0.0,0.0,90.0
24.75,0.0,0.0,0.0,0.0,0.0,0.0,0.0,90.0
24.71,0.0,0.0,0.0,0.0,0.0,0.0,0.0,90.0
24.75,0.0,0.0,0.0,0.0,0.0,0.0,0.0,90.0
24.65,0.0,0.0,0.0,0.0,0.0,0.0,0.0,90.0
24.69,0.0,0.0,0.0,0.0,0.0,0.0,0.0,90.0
24.69,0.0,0.0,0.0,0.0,0.0,0.0,0.0,90.0
24.75,0.0,0.0,0.0,0.0,0.0,0.0,0.0,90.0
24.69,0.0,0.0,0.0,0.0,0.0,0.0,0.0,90.0
24.63,0.0,0.0,0.0,0.0,0.0,0.0,0.0,90.0
24.69,0.0,0.0,0.0,0.0,0.0,0.0,0.0,90.0
24.75,0.0,0.0,0.0,0.0,0.0,0.0,0.0,90.0
24.87,0.0,0.0,0.0,0.0,0.0,0.0,0.0,90.0
24.71,0.0,0.0,0.0,0.0,0.0,0.0,0.0,90.0
24.83,0.0,0.0,0.0,0.0,0.0,0.0,0.0,90.0
24.77,0.0,0.0,0.0,0.0,0.0,0.0,0.0,90.0
24.83,0.0,0.0,0.0,0.0,0.0,0.0,0.0,90.0
24.75,0.0,0.0,0.0,0.0,0.0,0.0,0.0,90.0
24.75,0.0,0.0,0.0,0.0,0.0,0.0,0.0,90.0
24.69,0.0,0.0,0.0,0.0,0.0,0.0,0.0,90.0
24.71,0.0,0.0,0.0,0.0,0.0,0.0,0.0,90.0
24.69,0.0,0.0,0.0,0.0,0.0,0.0,0.0,90.0
24.63,0.0,0.0,0.0,0.0,0.0,0.0,0.0,90.0
24.63,0.0,0.0,0.0,0.0,0.0,0.0,0.0,90.0
24.69,0.0,0.0,0.0,0.0,0.0,0.0,0.0,90.0
24.57,0.0,0.0,0.0,0.0,0.0,0.0,0.0,90.0
24.71,0.0,0.0,0.0,0.0,0.0,0.0,0.0,90.0
24.59,0.0,0.0,0.0,0.0,0.0,0.0,0.0,90.0
24.59,0.0,0.0,0.0,0.0,0.0,0.0,0.0,90.0
24.57,0.0,0.0,0.0,0.0,0.0,0.0,0.0,90.0
24.57,0.0,0.0,0.0,0.0,0.0,0.0,0.0,90.0
24.57,0.0,0.0,0.0,0.0,0.0,0.0,0.0,90.0
24.57,0.0,0.0,0.0,0.0,0.0,0.0,0.0,90.0
24.69,0.0,0.0,0.0,0.0,0.0,0.0,0.0,90.0
24.69,0.0,0.0,0.0,0.0,0.0,0.0,0.0,90.0
24.69,0.0,0.0,0.0,0.0,0.0,0.0,0.0,90.0
24.71,0.0,0.0,0.0,0.0,0.0,0.0,0.0,90.0
24.69,0.0,0.0,0.0,0.0,0.0,0.0,0.0,90.0
24.69,0.0,0.0,0.0,0.0,0.0,0.0,0.0,90.0
24.69,0.0,0.0,0.0,0.0,0.0,0.0,0.0,90.0
24.65,0.0,0.0,0.0,0.0,0.0,0.0,0.0,90.0
24.71,0.0,0.0,0.0,0.0,0.0,0.0,0.0,90.0
24.75,0.0,0.0,0.0,0.0,0.0,0.0,0.0,90.0
24.59,0.0,0.0,0.0,0.0,0.0,0.0,0.0,90.0
24.65,0.0,0.0,0.0,0.0,0.0,0.0,0.0,90.0
24.59,0.0,0.0,0.0,0.0,0.0,0.0,0.0,90.0
24.57,0.0,0.0,0.0,0.0,0.0,0.0,0.0,90.0
24.59,0.0,0.0,0.0,0.0,0.0,0.0,0.0,90.0
24.53,0.0,0.0,0.0,0.0,0.0,0.0,0.0,90.0
24.53,0.0,0.0,0.0,0.0,0.0,0.0,0.0,90.0
24.57,0.0,0.0,0.0,0.0,0.0,0.0,0.0,90.0
24.57,0.0,0.0,0.0,0.0,0.0,0.0,0.0,90.0
24.59,0.0,0.0,0.0,0.0,0.0,0.0,0.0,90.0
24.59,0.0,0.0,0.0,0.0,0.0,0.0,0.0,90.0
24.57,0.0,0.0,0.0,0.0,0.0,0.0,0.0,90.0
24.57,0.0,0.0,0.0,0.0,0.0,0.0,0.0,90.0
24.57,0.0,0.0,0.0,0.0,0.0,0.0,0.0,90.0
24.53,0.0,0.0,0.0,0.0,0.0,0.0,0.0,90.0
24.57,0.0,0.0,0.0,0.0,0.0,0.0,0.0,90.0
24.65,0.0,0.0,0.0,0.0,0.0,0.0,0.0,90.0
24.59,0.0,0.0,0.0,0.0,0.0,0.0,0.0,15.0
24.53,0.0,0.0,0.0,0.0,0.0,0.0,0.0,15.0
24.77,0.0,0.0,0.0,0.0,0.0,0.0,0.0,15.0
24.75,0.0,0.0,0.0,0.0,0.0,0.0,0.0,15.0
25.29,0.0,0.0,0.0,0.0,0.0,0.0,0.0,15.0
26.55,0.0,0.0,0.0,0.0,0.0,0.0,0.0,15.0
26.55,0.0,0.0,0.0,0.0,0.0,0.0,0.0,15.0
26.47,0.0,0.0,0.0,0.0,0.0,0.0,0.0,15.0
24.89,0.0,0.0,0.0,0.0,0.0,0.0,0.0,15.0
24.81,0.0,0.0,0.0,0.0,0.0,0.0,0.0,15.0
24.81,0.0,0.0,0.0,0.0,0.0,0.0,0.0,15.0
24.77,0.0,0.0,0.0,0.0,0.0,0.0,0.0,15.0
24.77,0.0,0.0,0.0,0.0,0.0,0.0,0.0,15.0
24.81,0.0,0.0,0.0,0.0,0.0,0.0,0.0,15.0
24.87,0.0,0.0,0.0,0.0,0.0,0.0,0.0,15.0
24.89,0.0,0.0,0.0,0.0,0.0,0.0,0.0,15.0
24.93,0.0,0.0,0.0,0.0,0.0,0.0,0.0,15.0
24.87,0.0,0.0,0.0,0.0,0.0,0.0,0.0,15.0
25.01,0.0,0.0,0.0,0.0,0.0,0.0,0.0,15.0
24.87,0.0,0.0,0.0,0.0,0.0,0.0,0.0,15.0
24.89,0.0,0.0,0.0,0.0,0.0,0.0,0.0,15.0
24.87,0.0,0.0,0.0,0.0,0.0,0.0,0.0,15.0
24.89,0.0,0.0,0.0,0.0,0.0,0.0,0.0,15.0
24.93,0.0,0.0,0.0,0.0,0.0,0.0,0.0,15.0
24.89,0.0,0.0,0.0,0.0,0.0,0.0,0.0,15.0
24.83,0.0,0.0,0.0,0.0,0.0,0.0,0.0,15.0
24.81,0.0,0.0,0.0,0.0,0.0,0.0,0.0,15.0
24.93,0.0,0.0,0.0,0.0,0.0,0.0,0.0,15.0
24.81,0.0,0.0,0.0,0.0,0.0,0.0,0.0,15.0
24.81,0.0,0.0,0.0,0.0,0.0,0.0,0.0,15.0
24.89,0.0,0.0,0.0,0.0,0.0,0.0,0.0,15.0
24.83,0.0,0.0,0.0,0.0,0.0,0.0,0.0,15.0
24.83,0.0,0.0,0.0,0.0,0.0,0.0,0.0,15.0
24.83,0.0,6.0,0.0,0.0,0.0,0.0,0.0,15.0
24.87,0.0,0.0,0.0,0.0,0.0,0.0,0.0,15.0
24.93,0.0,0.0,0.0,0.0,0.0,0.0,0.0,15.0
24.89,0.0,0.0,0.0,0.0,0.0,0.0,0.0,15.0
24.87,0.0,0.0,0.0,0.0,0.0,0.0,0.0,15.0
24.87,0.0,0.0,0.0,0.0,0.0,0.0,0.0,15.0
24.87,0.0,0.0,0.0,0.0,0.0,0.0,0.0,15.0
24.87,0.0,0.0,0.0,0.0,0.0,0.0,0.0,15.0
24.83,0.0,0.0,0.0,0.0,0.0,0.0,0.0,15.0
24.83,0.0,0.0,0.0,0.0,0.0,0.0,0.0,15.0
24.83,0.0,0.0,0.0,0.0,0.0,0.0,0.0,15.0
24.87,0.0,0.0,0.0,0.0,0.0,0.0,0.0,15.0
24.87,0.0,0.0,0.0,0.0,0.0,0.0,0.0,15.0
24.87,0.0,0.0,0.0,0.0,0.0,0.0,0.0,15.0
24.81,0.0,0.0,0.0,0.0,0.0,0.0,0.0,15.0
24.83,0.0,0.0,0.0,0.0,0.0,0.0,0.0,15.0
24.89,0.0,0.0,0.0,0.0,0.0,0.0,0.0,15.0
24.81,0.0,0.0,0.0,0.0,0.0,0.0,0.0,15.0
24.77,0.0,0.0,0.0,0.0,0.0,0.0,0.0,15.0
24.75,0.0,0.0,0.0,0.0,0.0,0.0,0.0,15.0
24.93,0.0,0.0,0.0,0.0,0.0,0.0,0.0,15.0
24.99,0.0,0.0,0.0,0.0,0.0,0.0,0.0,23.0
25.05,0.0,0.0,0.0,0.0,0.0,0.0,0.0,32.0
24.89,0.0,0.0,0.0,0.0,0.0,0.0,0.0,42.0
24.95,0.0,0.0,0.0,0.0,0.0,0.0,0.0,52.0
25.05,0.0,0.0,0.0,0.0,0.0,0.0,0.0,62.0
25.05,0.0,0.0,0.0,0.0,0.0,0.0,0.0,71.0
24.99,0.0,0.0,0.0,0.0,0.0,0.0,0.0,81.0
24.93,0.0,0.0,0.0,0.0,0.0,0.0,0.0,85.0
24.89,0.0,0.0,0.0,0.0,0.0,0.0,0.0,90.0
24.87,0.0,0.0,234.0,0.0,0.0,0.0,168.0,99.0
24.89,0.0,0.0,470.0,0.0,0.0,0.0,235.0,100.0
24.83,0.0,0.0,678.0,0.0,0.0,0.0,271.0,100.0
24.83,0.0,0.0,816.0,0.0,0.0,0.0,288.0,100.0
24.87,0.0,0.0,948.0,0.0,0.0,0.0,322.0,100.0
24.87,0.0,0.0,1078.0,0.0,0.0,0.0,323.0,100.0
24.81,0.0,0.0,1129.0,0.0,0.0,0.0,334.0,100.0
24.81,0.0,0.0,1177.0,0.0,0.0,0.0,354.0,100.0
24.87,0.0,0.0,1218.0,0.0,0.0,0.0,360.0,100.0
24.87,0.0,0.0,1125.0,0.0,0.0,0.0,287.0,100.0
24.83,0.0,0.0,1368.0,0.0,0.0,0.0,449.0,100.0
24.83,0.0,0.0,1439.0,0.0,0.0,0.0,516.0,100.0
24.87,0.0,0.0,1474.0,0.0,0.0,0.0,546.0,100.0
24.89,0.0,0.0,1500.0,0.0,0.0,0.0,565.0,100.0
24.83,0.0,0.0,1509.0,0.0,0.0,0.0,583.0,100.0
24.81,0.0,0.0,1553.0,0.0,0.0,0.0,611.0,100.0
24.87,0.0,0.0,1579.0,0.0,0.0,0.0,636.0,100.0
24.93,0.0,0.0,1584.0,0.0,0.0,0.0,628.0,100.0
24.99,0.0,0.0,1594.0,0.0,0.0,0.0,634.0,100.0
25.01,0.0,0.0,1571.0,0.0,0.0,0.0,656.0,100.0
24.95,0.0,0.0,1597.0,0.0,0.0,0.0,654.0,100.0
24.93,0.0,0.0,1595.0,0.0,0.0,0.0,666.0,100.0
24.93,0.0,0.0,1597.0,0.0,0.0,0.0,717.0,100.0
24.77,0.0,0.0,1601.0,0.0,0.0,0.0,806.0,100.0
24.89,0.0,0.0,1595.0,0.0,0.0,0.0,837.0,100.0
24.95,0.0,0.0,1598.0,0.0,0.0,0.0,851.0,100.0
24.89,0.0,0.0,1584.0,0.0,0.0,0.0,862.0,100.0
24.89,0.0,0.0,1591.0,0.0,0.0,0.0,865.0,100.0
24.99,0.0,0.0,1582.0,0.0,0.0,0.0,888.0,100.0
24.95,0.0,0.0,1560.0,0.0,0.0,0.0,888.0,100.0
24.87,0.0,0.0,1535.0,0.0,0.0,0.0,909.0,100.0
24.89,0.0,0.0,1522.0,0.0,0.0,0.0,916.0,100.0
24.95,0.0,0.0,1522.0,0.0,0.0,0.0,914.0,100.0
25.01,0.0,0.0,1506.0,0.0,0.0,0.0,925.0,100.0
25.05,0.0,0.0,1504.0,0.0,0.0,0.0,930.0,100.0
25.17,0.0,0.0,1508.0,0.0,0.0,0.0,950.0,100.0
25.11,0.0,0.0,1505.0,0.0,0.0,0.0,950.0,100.0
25.05,0.0,0.0,1504.0,0.0,0.0,0.0,951.0,100.0
25.11,0.0,0.0,1506.0,0.0,0.0,0.0,954.0,100.0
25.13,0.0,0.0,1502.0,0.0,0.0,0.0,960.0,100.0
25.11,0.0,0.0,1495.0,0.0,0.0,0.0,964.0,100.0
25.11,0.0,0.0,1495.0,0.0,0.0,0.0,975.0,100.0
25.11,0.0,0.0,1503.0,0.0,0.0,0.0,961.0,100.0
25.13,0.0,0.0,1511.0,0.0,0.0,0.0,971.0,100.0
25.11,0.0,0.0,1509.0,0.0,0.0,0.0,970.0,100.0
25.17,0.0,0.0,1503.0,0.0,0.0,0.0,972.0,100.0
25.13,0.0,0.0,1511.0,0.0,4.0,0.0,978.0,100.0
25.05,0.0,0.0,1504.0,0.0,0.0,0.0,975.0,100.0
25.11,0.0,0.0,1502.0,0.0,0.0,0.0,977.0,100.0
25.13,0.0,0.0,1503.0,0.0,0.0,0.0,977.0,100.0
25.11,0.0,0.0,1503.0,0.0,0.0,0.0,976.0,100.0
25.13,0.0,0.0,1497.0,0.0,0.0,0.0,982.0,100.0
25.11,0.0,0.0,1504.0,0.0,0.0,0.0,976.0,100.0
25.11,0.0,0.0,1506.0,0.0,0.0,0.0,983.0,100.0
25.13,0.0,0.0,1503.0,0.0,0.0,0.0,983.0,100.0
25.13,0.0,0.0,1509.0,0.0,0.0,0.0,983.0,100.0
25.11,0.0,0.0,1497.0,0.0,0.0,0.0,984.0,100.0
25.17,0.0,0.0,1488.0,0.0,0.0,0.0,985.0,100.0
25.05,0.0,0.0,1498.0,0.0,0.0,0.0,987.0,100.0
24.93,0.0,0.0,1501.0,0.0,0.0,0.0,983.0,100.0
25.07,0.0,0.0,1493.0,0.0,0.0,0.0,986.0,100.0
25.01,0.0,0.0,1499.0,0.0,0.0,0.0,982.0,100.0
24.89,0.0,0.0,1502.0,0.0,0.0,0.0,979.0,100.0
24.87,0.0,0.0,1499.0,0.0,0.0,0.0,979.0,100.0
24.87,0.0,0.0,1499.0,0.0,0.0,0.0,981.0,100.0
24.93,0.0,0.0,1499.0,0.0,0.0,0.0,981.0,100.0
24.95,0.0,0.0,1502.0,0.0,0.0,0.0,992.0,100.0
24.99,0.0,0.0,1503.0,0.0,0.0,0.0,982.0,100.0
25.05,0.0,0.0,1183.0,0.0,0.0,0.0,992.0,100.0
25.01,0.0,0.0,1499.0,0.0,0.0,0.0,990.0,100.0
25.05,0.0,0.0,1508.0,0.0,0.0,0.0,982.0,100.0
24.93,0.0,0.0,1461.0,0.0,0.0,0.0,985.0,100.0
25.01,0.0,0.0,1499.0,0.0,0.0,0.0,986.0,100.0
25.01,0.0,0.0,1497.0,0.0,0.0,0.0,984.0,100.0
25.01,0.0,0.0,1488.0,0.0,0.0,0.0,991.0,100.0
25.01,0.0,0.0,1491.0,0.0,0.0,0.0,988.0,100.0
25.11,0.0,0.0,1498.0,0.0,0.0,0.0,991.0,100.0
25.05,0.0,0.0,1500.0,0.0,0.0,0.0,992.0,100.0
25.07,0.0,0.0,1501.0,0.0,0.0,0.0,993.0,100.0
25.11,0.0,0.0,1499.0,0.0,0.0,0.0,991.0,100.0
25.11,0.0,0.0,1493.0,0.0,0.0,0.0,999.0,100.0
25.01,0.0,0.0,99.0,0.0,0.0,0.0,0.0,15.0
25.17,0.0,0.0,131.0,0.0,0.0,0.0,0.0,15.0
25.01,0.0,0.0,108.0,0.0,0.0,0.0,0.0,15.0
25.07,0.0,0.0,12.0,0.0,0.0,0.0,0.0,15.0
25.11,0.0,0.0,0.0,0.0,0.0,0.0,0.0,15.0
25.11,0.0,0.0,0.0,0.0,0.0,0.0,0.0,15.0
25.93,0.0,0.0,0.0,0.0,0.0,0.0,0.0,15.0
27.09,0.0,0.0,0.0,0.0,0.0,0.0,0.0,15.0
27.35,0.0,0.0,0.0,0.0,0.0,0.0,0.0,15.0
26.59,0.0,0.0,0.0,0.0,0.0,0.0,0.0,15.0
25.75,0.0,0.0,0.0,0.0,0.0,0.0,0.0,15.0
24.99,0.0,0.0,0.0,0.0,0.0,0.0,0.0,15.0
25.11,0.0,0.0,0.0,0.0,0.0,0.0,0.0,15.0
24.87,0.0,0.0,0.0,0.0,0.0,0.0,0.0,15.0
24.87,0.0,0.0,0.0,0.0,0.0,0.0,0.0,15.0
24.83,0.0,0.0,0.0,0.0,0.0,0.0,0.0,15.0
24.77,0.0,0.0,0.0,0.0,0.0,0.0,0.0,15.0
24.75,0.0,0.0,0.0,0.0,0.0,0.0,0.0,15.0
24.83,0.0,0.0,0.0,0.0,0.0,0.0,0.0,15.0
24.83,0.0,0.0,0.0,0.0,0.0,0.0,0.0,15.0
24.87,0.0,0.0,0.0,0.0,0.0,0.0,0.0,15.0
24.87,0.0,0.0,0.0,0.0,0.0,0.0,0.0,15.0
24.83,0.0,0.0,0.0,0.0,0.0,0.0,0.0,15.0
24.83,0.0,0.0,0.0,0.0,0.0,0.0,0.0,15.0
24.83,0.0,0.0,0.0,0.0,0.0,0.0,0.0,15.0
24.83,0.0,0.0,0.0,0.0,0.0,0.0,0.0,15.0
24.87,0.0,0.0,0.0,0.0,0.0,0.0,0.0,15.0
24.77,0.0,0.0,0.0,0.0,0.0,0.0,0.0,15.0
24.83,0.0,0.0,0.0,0.0,0.0,0.0,0.0,15.0
24.77,0.0,0.0,0.0,0.0,0.0,0.0,0.0,15.0
24.77,0.0,0.0,0.0,0.0,0.0,0.0,0.0,15.0
24.83,0.0,0.0,0.0,0.0,0.0,0.0,0.0,15.0
24.83,0.0,0.0,0.0,0.0,0.0,0.0,0.0,15.0
24.81,0.0,0.0,0.0,0.0,0.0,0.0,0.0,15.0
24.81,0.0,0.0,0.0,0.0,0.0,0.0,0.0,15.0
24.87,0.0,0.0,0.0,0.0,0.0,0.0,0.0,15.0
24.87,0.0,0.0,0.0,0.0,0.0,0.0,0.0,15.0
24.83,0.0,0.0,0.0,0.0,0.0,0.0,0.0,15.0
24.83,0.0,0.0,0.0,0.0,0.0,0.0,0.0,15.0
24.83,0.0,0.0,0.0,0.0,0.0,0.0,0.0,15.0
24.87,0.0,0.0,0.0,0.0,0.0,0.0,1.0,15.0
24.81,0.0,0.0,0.0,0.0,0.0,0.0,0.0,15.0
24.87,0.0,0.0,0.0,0.0,0.0,0.0,0.0,15.0
24.87,0.0,0.0,0.0,0.0,0.0,0.0,0.0,15.0
24.95,0.0,0.0,0.0,0.0,0.0,0.0,0.0,15.0
25.17,0.0,0.0,0.0,0.0,0.0,0.0,0.0,15.0
25.17,0.0,0.0,0.0,0.0,0.0,0.0,0.0,15.0
25.87,0.0,0.0,0.0,0.0,0.0,0.0,0.0,15.0
28.83,0.0,0.0,0.0,0.0,0.0,0.0,0.0,15.0
30.63,0.0,0.0,0.0,0.0,0.0,0.0,0.0,15.0
31.57,0.0,0.0,0.0,0.0,0.0,0.0,0.0,15.0
32.61,0.0,0.0,0.0,0.0,0.0,0.0,0.0,15.0
33.17,0.0,0.0,0.0,0.0,0.0,0.0,0.0,15.0
33.57,0.0,0.0,0.0,0.0,0.0,0.0,0.0,15.0
34.93,0.0,0.0,0.0,0.0,0.0,0.0,0.0,20.0
35.19,0.0,0.0,0.0,0.0,0.0,0.0,0.0,28.0
35.47,0.0,0.0,0.0,0.0,0.0,0.0,0.0,37.0
35.43,0.0,0.0,0.0,0.0,0.0,0.0,0.0,47.0
35.09,0.0,0.0,0.0,0.0,0.0,0.0,0.0,57.0
35.23,0.0,0.0,0.0,0.0,0.0,0.0,0.0,68.0
34.93,0.0,0.0,0.0,0.0,0.0,0.0,0.0,78.0
34.89,0.0,0.0,0.0,0.0,0.0,0.0,0.0,88.0
34.89,0.0,0.0,0.0,0.0,0.0,0.0,0.0,97.0
34.91,0.0,0.0,0.0,0.0,0.0,0.0,0.0,100.0
34.83,0.0,53.0,0.0,0.0,0.0,0.0,0.0,100.0
34.89,0.0,0.0,0.0,0.0,0.0,0.0,0.0,100.0
34.89,0.0,0.0,0.0,0.0,0.0,0.0,0.0,100.0
34.97,0.0,0.0,0.0,0.0,0.0,0.0,0.0,100.0
35.01,0.0,0.0,0.0,0.0,0.0,0.0,0.0,100.0
34.91,0.0,0.0,0.0,0.0,0.0,0.0,0.0,100.0
34.97,0.0,0.0,0.0,0.0,0.0,0.0,0.0,100.0
35.01,0.0,0.0,0.0,0.0,0.0,0.0,0.0,100.0
34.93,0.0,0.0,0.0,0.0,0.0,0.0,0.0,100.0
34.93,0.0,0.0,0.0,0.0,0.0,0.0,0.0,100.0
35.01,0.0,0.0,0.0,0.0,0.0,0.0,0.0,100.0
35.09,0.0,0.0,0.0,0.0,0.0,0.0,0.0,100.0
35.29,0.0,0.0,0.0,0.0,0.0,0.0,0.0,100.0
35.39,0.0,0.0,0.0,0.0,0.0,0.0,0.0,100.0
35.37,0.0,0.0,0.0,0.0,0.0,0.0,0.0,100.0
35.39,0.0,0.0,0.0,0.0,0.0,0.0,0.0,100.0
35.43,0.0,0.0,0.0,0.0,0.0,0.0,0.0,100.0
35.39,0.0,0.0,0.0,0.0,0.0,0.0,0.0,100.0
35.39,0.0,0.0,0.0,0.0,0.0,0.0,0.0,100.0
35.37,0.0,0.0,0.0,0.0,0.0,0.0,0.0,100.0
35.35,0.0,0.0,0.0,0.0,0.0,0.0,0.0,100.0
35.37,0.0,0.0,0.0,0.0,0.0,0.0,0.0,100.0
35.15,0.0,0.0,0.0,0.0,0.0,0.0,0.0,100.0
35.07,0.0,0.0,0.0,0.0,0.0,0.0,0.0,100.0
35.09,0.0,0.0,0.0,0.0,0.0,0.0,0.0,100.0
35.09,0.0,0.0,0.0,0.0,0.0,0.0,0.0,100.0
35.01,0.0,0.0,0.0,0.0,0.0,0.0,0.0,100.0
34.97,0.0,0.0,0.0,0.0,0.0,0.0,0.0,100.0
35.01,0.0,0.0,0.0,0.0,0.0,0.0,0.0,100.0
35.05,0.0,0.0,0.0,0.0,0.0,0.0,0.0,100.0
34.97,0.0,0.0,0.0,0.0,0.0,0.0,0.0,100.0
35.07,0.0,0.0,0.0,0.0,0.0,0.0,0.0,100.0
35.05,0.0,0.0,0.0,0.0,0.0,0.0,0.0,100.0
35.01,0.0,0.0,0.0,0.0,0.0,0.0,0.0,100.0
35.01,0.0,0.0,0.0,0.0,0.0,0.0,0.0,100.0
35.07,0.0,0.0,0.0,0.0,0.0,0.0,0.0,100.0
35.01,0.0,0.0,0.0,0.0,0.0,0.0,0.0,100.0
35.07,0.0,0.0,0.0,0.0,0.0,0.0,0.0,100.0
35.01,0.0,0.0,0.0,0.0,0.0,0.0,0.0,100.0
35.13,0.0,0.0,0.0,0.0,0.0,0.0,0.0,100.0
35.19,0.0,0.0,0.0,0.0,0.0,0.0,0.0,100.0
35.21,0.0,0.0,0.0,0.0,0.0,0.0,0.0,100.0
35.15,0.0,0.0,0.0,0.0,0.0,0.0,0.0,100.0
35.21,0.0,0.0,0.0,0.0,0.0,0.0,0.0,100.0
35.15,0.0,0.0,0.0,0.0,0.0,0.0,0.0,100.0
35.23,0.0,0.0,0.0,0.0,0.0,0.0,0.0,100.0
35.21,0.0,0.0,0.0,0.0,0.0,0.0,0.0,100.0
35.21,0.0,0.0,0.0,0.0,0.0,0.0,0.0,100.0
35.19,0.0,0.0,0.0,0.0,0.0,0.0,0.0,100.0
35.19,0.0,0.0,0.0,0.0,0.0,0.0,0.0,100.0
35.21,0.0,0.0,0.0,0.0,0.0,0.0,0.0,100.0
35.21,0.0,0.0,0.0,0.0,0.0,0.0,0.0,100.0
35.19,0.0,0.0,0.0,0.0,0.0,0.0,0.0,100.0
35.19,0.0,0.0,0.0,0.0,0.0,0.0,0.0,100.0
35.23,0.0,0.0,0.0,0.0,0.0,0.0,0.0,100.0
35.23,0.0,0.0,0.0,0.0,0.0,0.0,0.0,100.0
35.23,0.0,0.0,0.0,0.0,0.0,0.0,0.0,100.0
35.27,0.0,0.0,0.0,0.0,0.0,0.0,0.0,100.0
35.35,0.0,0.0,0.0,0.0,0.0,0.0,0.0,100.0
35.29,0.0,0.0,0.0,0.0,0.0,0.0,0.0,100.0
35.31,0.0,0.0,0.0,0.0,0.0,0.0,0.0,100.0
35.37,0.0,0.0,0.0,0.0,0.0,0.0,0.0,100.0
35.27,0.0,0.0,0.0,0.0,0.0,0.0,0.0,100.0
35.31,0.0,0.0,0.0,0.0,0.0,0.0,0.0,100.0
35.31,0.0,0.0,0.0,0.0,0.0,0.0,0.0,100.0
35.35,0.0,0.0,0.0,0.0,0.0,0.0,0.0,100.0
35.35,0.0,0.0,0.0,0.0,0.0,0.0,0.0,100.0
35.31,0.0,0.0,0.0,0.0,0.0,0.0,0.0,100.0
35.29,0.0,0.0,0.0,0.0,0.0,0.0,0.0,100.0
35.15,0.0,0.0,0.0,0.0,0.0,0.0,0.0,100.0
35.21,0.0,0.0,0.0,0.0,0.0,0.0,0.0,100.0
35.21,0.0,0.0,0.0,0.0,0.0,0.0,0.0,100.0
35.29,0.0,0.0,0.0,0.0,0.0,0.0,0.0,100.0
35.31,0.0,0.0,0.0,0.0,0.0,0.0,0.0,100.0
35.21,0.0,0.0,0.0,0.0,0.0,0.0,0.0,100.0
35.27,0.0,0.0,0.0,0.0,0.0,0.0,0.0,100.0
35.23,0.0,0.0,0.0,0.0,0.0,0.0,0.0,100.0
35.35,0.0,0.0,0.0,0.0,0.0,0.0,0.0,100.0
35.35,0.0,0.0,0.0,0.0,0.0,0.0,0.0,15.0
38.25,0.0,0.0,0.0,0.0,0.0,0.0,0.0,15.0
25.61,0.0,0.0,0.0,0.0,0.0,0.0,0.0,15.0
25.61,0.0,0.0,0.0,0.0,0.0,0.0,0.0,15.0
26.59,0.0,0.0,0.0,0.0,0.0,0.0,0.0,15.0
26.71,0.0,0.0,0.0,0.0,0.0,0.0,0.0,15.0
26.61,0.0,0.0,0.0,0.0,0.0,0.0,0.0,15.0
27.11,0.0,0.0,0.0,0.0,0.0,0.0,0.0,15.0
27.53,0.0,0.0,0.0,0.0,0.0,0.0,0.0,15.0
28.05,0.0,0.0,0.0,0.0,0.0,0.0,0.0,15.0
25.25,0.0,0.0,0.0,0.0,0.0,0.0,0.0,15.0
25.13,0.0,0.0,0.0,0.0,0.0,0.0,0.0,15.0
24.99,0.0,0.0,0.0,0.0,0.0,0.0,0.0,15.0
25.13,0.0,0.0,0.0,0.0,0.0,0.0,0.0,15.0
25.11,0.0,0.0,0.0,0.0,0.0,0.0,0.0,15.0
25.05,0.0,0.0,0.0,0.0,0.0,0.0,0.0,15.0
25.13,0.0,0.0,0.0,0.0,0.0,0.0,0.0,15.0
25.23,0.0,0.0,0.0,0.0,0.0,0.0,0.0,15.0
25.29,0.0,0.0,0.0,0.0,0.0,0.0,0.0,15.0
25.25,0.0,0.0,0.0,0.0,0.0,0.0,0.0,15.0
25.23,0.0,0.0,0.0,0.0,0.0,0.0,0.0,15.0
25.23,0.0,0.0,0.0,0.0,0.0,0.0,0.0,15.0
25.23,0.0,0.0,0.0,0.0,0.0,0.0,0.0,15.0
25.19,0.0,0.0,0.0,0.0,0.0,0.0,0.0,15.0
25.25,0.0,0.0,0.0,0.0,0.0,0.0,0.0,15.0
25.23,0.0,0.0,0.0,0.0,0.0,0.0,0.0,15.0
25.19,0.0,0.0,0.0,0.0,0.0,0.0,0.0,15.0
25.17,0.0,0.0,0.0,0.0,0.0,0.0,0.0,15.0
25.25,0.0,0.0,0.0,0.0,0.0,0.0,0.0,15.0
25.19,0.0,0.0,0.0,0.0,0.0,0.0,0.0,15.0
25.23,0.0,0.0,0.0,0.0,0.0,0.0,0.0,15.0
25.23,0.0,0.0,0.0,0.0,0.0,0.0,0.0,15.0
25.23,0.0,0.0,0.0,0.0,0.0,0.0,0.0,15.0
25.25,0.0,0.0,0.0,0.0,0.0,0.0,0.0,15.0
25.19,0.0,0.0,0.0,0.0,0.0,0.0,0.0,15.0
25.19,0.0,0.0,0.0,0.0,0.0,0.0,0.0,15.0
25.25,0.0,0.0,0.0,0.0,0.0,0.0,0.0,15.0
25.25,0.0,0.0,0.0,0.0,0.0,0.0,0.0,15.0
25.23,0.0,0.0,0.0,0.0,0.0,0.0,0.0,15.0
25.23,0.0,0.0,0.0,0.0,0.0,0.0,0.0,15.0
25.25,0.0,0.0,0.0,0.0,0.0,0.0,0.0,15.0
25.19,0.0,0.0,0.0,0.0,0.0,0.0,0.0,15.0
25.17,0.0,0.0,0.0,0.0,0.0,0.0,0.0,15.0
25.17,0.0,0.0,0.0,0.0,0.0,0.0,0.0,15.0
25.11,0.0,0.0,0.0,0.0,0.0,0.0,0.0,15.0
25.17,0.0,0.0,0.0,0.0,0.0,0.0,0.0,15.0
25.19,0.0,0.0,0.0,0.0,0.0,0.0,0.0,15.0
25.29,0.0,0.0,0.0,0.0,0.0,0.0,0.0,15.0
25.49,0.0,0.0,0.0,0.0,0.0,0.0,0.0,18.0
25.59,0.0,0.0,0.0,0.0,0.0,0.0,0.0,30.0
25.61,0.0,0.0,0.0,0.0,0.0,0.0,0.0,40.0
25.73,0.0,0.0,0.0,0.0,0.0,0.0,0.0,50.0
25.55,0.0,0.0,0.0,0.0,0.0,0.0,0.0,59.0
25.61,0.0,0.0,0.0,0.0,0.0,0.0,0.0,70.0
25.49,0.0,0.0,0.0,0.0,0.0,0.0,0.0,80.0
25.41,0.0,0.0,0.0,0.0,0.0,0.0,0.0,90.0
25.35,0.0,0.0,0.0,0.0,0.0,0.0,0.0,100.0
25.29,0.0,0.0,0.0,0.0,0.0,0.0,0.0,100.0
25.25,0.0,0.0,0.0,0.0,0.0,0.0,0.0,100.0
25.31,0.0,0.0,0.0,0.0,0.0,0.0,0.0,100.0
25.25,0.0,0.0,0.0,0.0,0.0,0.0,0.0,100.0
25.23,0.0,0.0,0.0,0.0,0.0,0.0,0.0,100.0
25.19,0.0,0.0,0.0,0.0,0.0,0.0,0.0,100.0
25.23,0.0,0.0,0.0,0.0,0.0,0.0,0.0,100.0
25.23,0.0,0.0,0.0,0.0,0.0,0.0,0.0,100.0
25.23,0.0,0.0,0.0,0.0,0.0,0.0,0.0,100.0
25.19,0.0,0.0,0.0,0.0,0.0,0.0,5.0,100.0
25.19,0.0,0.0,0.0,0.0,0.0,0.0,0.0,100.0
25.23,0.0,0.0,0.0,0.0,0.0,0.0,0.0,100.0
25.23,0.0,0.0,0.0,0.0,0.0,0.0,5.0,100.0
25.23,0.0,0.0,0.0,0.0,0.0,0.0,4.0,100.0
25.19,0.0,0.0,0.0,0.0,0.0,0.0,3.0,100.0
25.19,0.0,0.0,0.0,0.0,0.0,0.0,5.0,100.0
25.17,0.0,0.0,0.0,0.0,0.0,0.0,6.0,100.0
25.13,0.0,0.0,0.0,0.0,0.0,0.0,8.0,100.0
25.19,0.0,0.0,0.0,0.0,0.0,0.0,10.0,100.0
25.29,0.0,0.0,0.0,0.0,0.0,0.0,14.0,100.0
25.37,0.0,0.0,0.0,0.0,0.0,0.0,6.0,100.0
25.55,0.0,0.0,0.0,0.0,0.0,0.0,13.0,100.0
25.49,0.0,0.0,0.0,0.0,0.0,0.0,10.0,100.0
25.47,0.0,0.0,0.0,0.0,0.0,0.0,5.0,100.0
25.49,0.0,0.0,0.0,0.0,0.0,0.0,8.0,100.0
25.53,0.0,0.0,0.0,0.0,0.0,0.0,12.0,100.0
25.47,0.0,0.0,0.0,0.0,0.0,0.0,7.0,100.0
25.29,0.0,0.0,0.0,0.0,0.0,0.0,8.0,100.0
25.23,0.0,0.0,0.0,0.0,0.0,0.0,5.0,100.0
25.17,0.0,0.0,0.0,0.0,0.0,0.0,16.0,100.0
25.17,0.0,0.0,0.0,0.0,0.0,0.0,14.0,100.0
25.17,0.0,0.0,0.0,0.0,0.0,0.0,8.0,100.0
25.19,0.0,0.0,0.0,0.0,0.0,0.0,14.0,100.0
25.19,0.0,0.0,0.0,0.0,0.0,0.0,7.0,100.0
25.23,0.0,0.0,0.0,0.0,0.0,368.0,8.0,100.0
25.23,0.0,0.0,0.0,0.0,0.0,0.0,12.0,100.0
25.31,0.0,0.0,0.0,0.0,0.0,0.0,10.0,100.0
25.29,0.0,0.0,0.0,0.0,0.0,0.0,8.0,100.0
25.25,0.0,0.0,0.0,0.0,0.0,0.0,18.0,100.0
25.25,0.0,0.0,0.0,0.0,0.0,0.0,8.0,100.0
25.25,0.0,0.0,0.0,0.0,0.0,0.0,10.0,100.0
25.25,0.0,0.0,0.0,0.0,0.0,0.0,6.0,100.0
25.29,0.0,0.0,0.0,0.0,0.0,0.0,7.0,100.0
25.17,0.0,0.0,0.0,0.0,0.0,0.0,8.0,100.0
25.17,0.0,0.0,0.0,0.0,0.0,0.0,9.0,100.0
25.17,0.0,0.0,0.0,0.0,0.0,0.0,10.0,100.0
25.17,0.0,0.0,0.0,0.0,0.0,0.0,12.0,100.0
25.13,0.0,0.0,0.0,0.0,0.0,0.0,9.0,100.0
25.19,0.0,0.0,0.0,0.0,0.0,0.0,12.0,100.0
25.17,0.0,0.0,0.0,0.0,0.0,0.0,9.0,100.0
25.01,0.0,0.0,0.0,0.0,0.0,0.0,11.0,100.0
25.11,0.0,0.0,0.0,0.0,0.0,0.0,15.0,100.0
25.07,0.0,0.0,0.0,0.0,0.0,0.0,9.0,100.0
24.95,0.0,0.0,0.0,0.0,0.0,0.0,6.0,100.0
25.07,0.0,0.0,0.0,0.0,0.0,0.0,9.0,100.0
25.17,0.0,0.0,0.0,0.0,0.0,0.0,13.0,100.0
25.25,0.0,0.0,0.0,0.0,0.0,0.0,8.0,100.0
25.13,0.0,0.0,0.0,0.0,0.0,0.0,9.0,100.0
25.23,0.0,0.0,0.0,0.0,0.0,0.0,8.0,100.0
25.17,0.0,0.0,0.0,0.0,0.0,0.0,7.0,100.0
25.29,0.0,0.0,0.0,0.0,0.0,0.0,11.0,100.0
25.19,0.0,0.0,0.0,0.0,0.0,0.0,7.0,100.0
25.25,0.0,0.0,0.0,0.0,0.0,0.0,12.0,100.0
25.13,0.0,0.0,0.0,0.0,0.0,0.0,5.0,100.0
25.17,0.0,0.0,0.0,0.0,0.0,0.0,14.0,100.0
25.07,0.0,0.0,0.0,0.0,0.0,0.0,8.0,100.0
25.17,0.0,0.0,0.0,0.0,0.0,0.0,10.0,100.0
25.05,0.0,0.0,0.0,0.0,0.0,0.0,6.0,100.0
25.05,0.0,0.0,0.0,0.0,0.0,0.0,1.0,100.0
25.13,0.0,0.0,0.0,0.0,0.0,0.0,10.0,100.0
25.11,0.0,0.0,0.0,0.0,0.0,0.0,5.0,100.0
25.19,0.0,0.0,0.0,0.0,0.0,0.0,5.0,100.0
25.13,0.0,0.0,0.0,0.0,0.0,0.0,4.0,100.0
25.13,0.0,0.0,0.0,0.0,0.0,0.0,6.0,100.0
25.11,0.0,0.0,0.0,0.0,0.0,0.0,4.0,100.0
25.13,0.0,0.0,0.0,0.0,0.0,0.0,7.0,100.0
25.13,0.0,0.0,0.0,0.0,0.0,0.0,10.0,100.0
25.17,0.0,0.0,0.0,0.0,0.0,0.0,11.0,100.0
25.17,0.0,0.0,0.0,0.0,0.0,0.0,3.0,100.0
25.07,0.0,0.0,0.0,0.0,0.0,0.0,6.0,100.0
25.17,0.0,0.0,0.0,0.0,0.0,0.0,2.0,100.0
25.19,0.0,0.0,0.0,0.0,0.0,0.0,6.0,100.0
25.13,0.0,0.0,0.0,0.0,0.0,0.0,13.0,100.0
25.07,0.0,0.0,64.0,0.0,0.0,0.0,1.0,100.0
25.17,0.0,0.0,0.0,0.0,0.0,0.0,8.0,100.0
25.17,0.0,0.0,0.0,0.0,0.0,0.0,6.0,100.0
25.05,0.0,0.0,0.0,0.0,0.0,0.0,7.0,100.0
25.07,0.0,0.0,0.0,0.0,0.0,0.0,0.0,15.0
25.07,0.0,0.0,0.0,0.0,0.0,0.0,0.0,15.0
25.43,0.0,0.0,0.0,0.0,0.0,0.0,0.0,15.0
25.17,0.0,0.0,0.0,0.0,0.0,0.0,0.0,15.0
25.23,0.0,0.0,0.0,0.0,0.0,0.0,0.0,15.0
25.23,0.0,0.0,0.0,0.0,0.0,0.0,0.0,15.0
26.53,0.0,0.0,0.0,0.0,0.0,0.0,0.0,15.0
25.87,0.0,0.0,56.0,0.0,0.0,0.0,0.0,15.0
25.07,0.0,0.0,0.0,0.0,0.0,0.0,0.0,15.0
25.13,0.0,0.0,0.0,0.0,0.0,0.0,0.0,15.0
25.05,0.0,0.0,0.0,0.0,0.0,0.0,0.0,15.0
24.95,0.0,0.0,0.0,0.0,0.0,0.0,0.0,15.0
24.87,0.0,0.0,0.0,0.0,0.0,0.0,0.0,15.0
24.87,0.0,0.0,0.0,0.0,0.0,0.0,0.0,15.0
24.87,0.0,0.0,0.0,0.0,0.0,0.0,0.0,15.0
24.89,0.0,0.0,0.0,0.0,0.0,0.0,0.0,15.0
24.89,0.0,0.0,0.0,0.0,0.0,0.0,0.0,15.0
24.93,0.0,0.0,0.0,0.0,0.0,0.0,0.0,15.0
25.07,0.0,0.0,0.0,0.0,0.0,0.0,0.0,15.0
25.07,0.0,0.0,0.0,0.0,0.0,0.0,0.0,15.0
25.05,0.0,0.0,0.0,0.0,0.0,0.0,0.0,15.0
24.95,0.0,0.0,0.0,0.0,0.0,0.0,0.0,15.0
25.01,0.0,0.0,0.0,0.0,0.0,0.0,0.0,15.0
24.93,0.0,0.0,0.0,0.0,0.0,0.0,0.0,15.0
25.07,0.0,0.0,0.0,0.0,0.0,0.0,0.0,15.0
25.13,0.0,0.0,0.0,0.0,0.0,0.0,0.0,15.0
25.17,0.0,0.0,0.0,0.0,0.0,0.0,0.0,15.0
25.17,0.0,0.0,0.0,0.0,0.0,0.0,0.0,15.0
25.19,0.0,0.0,0.0,0.0,0.0,0.0,0.0,15.0
25.17,0.0,0.0,0.0,0.0,0.0,0.0,0.0,15.0
25.13,0.0,0.0,0.0,0.0,0.0,0.0,0.0,15.0
25.11,0.0,0.0,0.0,0.0,0.0,0.0,0.0,15.0
25.19,0.0,0.0,0.0,0.0,0.0,0.0,0.0,15.0
25.23,0.0,0.0,0.0,0.0,0.0,0.0,0.0,15.0
25.19,0.0,0.0,0.0,0.0,0.0,0.0,0.0,15.0
25.17,0.0,0.0,0.0,0.0,0.0,0.0,0.0,15.0
25.19,0.0,0.0,0.0,0.0,0.0,0.0,0.0,15.0
25.13,0.0,0.0,0.0,0.0,0.0,0.0,0.0,15.0
25.07,0.0,0.0,0.0,0.0,0.0,0.0,0.0,15.0
25.07,0.0,0.0,0.0,0.0,0.0,0.0,0.0,15.0
25.13,0.0,0.0,0.0,0.0,0.0,0.0,0.0,15.0
25.11,0.0,0.0,0.0,0.0,0.0,0.0,0.0,15.0
25.11,0.0,0.0,0.0,0.0,0.0,0.0,0.0,15.0
25.11,0.0,0.0,0.0,0.0,0.0,0.0,0.0,15.0
25.17,0.0,0.0,0.0,0.0,0.0,0.0,0.0,15.0
25.17,0.0,0.0,0.0,0.0,0.0,0.0,0.0,15.0
25.17,0.0,0.0,0.0,0.0,0.0,0.0,0.0,15.0
25.29,0.0,0.0,0.0,0.0,0.0,0.0,0.0,15.0
25.35,0.0,0.0,0.0,0.0,0.0,0.0,0.0,15.0
25.43,0.0,0.0,0.0,0.0,0.0,0.0,0.0,15.0
25.37,0.0,0.0,0.0,0.0,0.0,0.0,0.0,15.0
25.35,0.0,0.0,0.0,0.0,0.0,0.0,0.0,15.0
25.47,0.0,0.0,0.0,0.0,0.0,0.0,0.0,17.0
25.41,0.0,0.0,0.0,0.0,0.0,0.0,0.0,27.0
25.61,0.0,0.0,0.0,0.0,0.0,0.0,0.0,36.0
25.59,0.0,0.0,0.0,0.0,0.0,0.0,0.0,45.0
25.61,0.0,0.0,0.0,0.0,0.0,0.0,0.0,58.0
25.55,0.0,0.0,0.0,0.0,0.0,0.0,0.0,67.0
25.59,0.0,0.0,0.0,0.0,0.0,460.0,0.0,77.0
25.61,0.0,0.0,0.0,0.0,0.0,487.0,1091.0,86.0
25.69,0.0,0.0,0.0,0.0,0.0,361.0,1120.0,94.0
25.67,0.0,0.0,146.0,0.0,0.0,0.0,1148.0,100.0
25.59,0.0,0.0,0.0,0.0,0.0,0.0,1127.0,100.0
25.61,0.0,0.0,0.0,0.0,0.0,0.0,1172.0,100.0
25.69,0.0,0.0,0.0,0.0,0.0,0.0,1167.0,100.0
25.61,0.0,0.0,0.0,0.0,0.0,0.0,1158.0,100.0
25.69,0.0,0.0,0.0,0.0,0.0,0.0,1167.0,100.0
25.61,0.0,0.0,0.0,0.0,0.0,0.0,1161.0,100.0
25.63,0.0,0.0,0.0,0.0,0.0,0.0,1156.0,100.0
25.63,0.0,0.0,240.0,0.0,0.0,329.0,1552.0,100.0
25.59,0.0,0.0,240.0,0.0,0.0,389.0,1563.0,100.0
25.53,0.0,0.0,300.0,0.0,0.0,400.0,1532.0,100.0
25.49,0.0,0.0,256.0,0.0,0.0,546.0,1520.0,100.0
25.59,0.0,0.0,326.0,0.0,0.0,742.0,1497.0,100.0
25.63,0.0,0.0,362.0,0.0,0.0,846.0,1451.0,100.0
25.61,0.0,0.0,434.0,0.0,0.0,940.0,1441.0,100.0
25.53,0.0,0.0,531.0,0.0,0.0,1082.0,1443.0,100.0
25.59,0.0,0.0,559.0,0.0,0.0,1199.0,1484.0,100.0
25.59,0.0,0.0,601.0,0.0,0.0,1245.0,1519.0,100.0
25.53,0.0,0.0,625.0,0.0,0.0,1269.0,1515.0,100.0
25.53,0.0,0.0,637.0,0.0,0.0,1264.0,1517.0,100.0
25.53,0.0,0.0,640.0,0.0,0.0,1275.0,1521.0,100.0
25.55,0.0,0.0,659.0,0.0,0.0,1267.0,1530.0,100.0
25.63,0.0,0.0,678.0,0.0,0.0,1106.0,1459.0,100.0
25.59,0.0,0.0,618.0,0.0,0.0,1318.0,1550.0,100.0
25.59,0.0,0.0,527.0,0.0,0.0,1115.0,1582.0,100.0
25.59,0.0,0.0,293.0,0.0,0.0,1002.0,1561.0,100.0
25.55,0.0,0.0,242.0,0.0,0.0,791.0,1605.0,100.0
25.59,0.0,0.0,256.0,0.0,0.0,554.0,1679.0,100.0
25.59,0.0,0.0,193.0,0.0,0.0,298.0,1719.0,100.0
25.55,0.0,0.0,208.0,0.0,0.0,284.0,1722.0,100.0
25.61,0.0,0.0,105.0,0.0,0.0,76.0,1762.0,100.0
25.59,0.0,0.0,34.0,0.0,0.0,0.0,1773.0,100.0
25.67,0.0,0.0,32.0,0.0,0.0,0.0,1756.0,100.0
25.59,0.0,0.0,0.0,0.0,0.0,0.0,1776.0,100.0
25.53,0.0,0.0,0.0,0.0,0.0,0.0,1737.0,100.0
25.55,0.0,0.0,33.0,0.0,0.0,0.0,1798.0,100.0
25.53,0.0,0.0,0.0,0.0,0.0,0.0,1803.0,100.0
25.41,0.0,0.0,0.0,0.0,0.0,0.0,1804.0,100.0
25.47,0.0,0.0,0.0,0.0,0.0,0.0,1807.0,100.0
25.47,0.0,0.0,0.0,0.0,0.0,0.0,1809.0,100.0
25.41,0.0,0.0,0.0,0.0,0.0,0.0,1811.0,100.0
25.49,0.0,0.0,0.0,0.0,0.0,0.0,1820.0,100.0
25.47,0.0,0.0,0.0,0.0,0.0,0.0,1816.0,100.0
25.47,0.0,0.0,0.0,0.0,0.0,0.0,1827.0,100.0
25.47,0.0,0.0,0.0,0.0,0.0,0.0,1822.0,100.0
25.47,0.0,0.0,0.0,0.0,0.0,0.0,1821.0,100.0
25.49,0.0,0.0,0.0,0.0,0.0,0.0,1830.0,100.0
25.37,0.0,0.0,0.0,0.0,0.0,0.0,1835.0,100.0
25.41,0.0,0.0,0.0,0.0,0.0,0.0,1833.0,100.0
25.43,0.0,0.0,0.0,0.0,0.0,0.0,1829.0,100.0
25.43,0.0,0.0,0.0,0.0,0.0,0.0,1826.0,100.0
25.43,0.0,0.0,0.0,0.0,0.0,0.0,1830.0,100.0
25.43,0.0,0.0,0.0,0.0,0.0,0.0,1827.0,100.0
25.49,0.0,0.0,0.0,0.0,0.0,0.0,1826.0,100.0
25.49,0.0,0.0,0.0,0.0,0.0,0.0,1823.0,100.0
25.47,0.0,0.0,0.0,0.0,0.0,0.0,1834.0,100.0
25.41,0.0,0.0,0.0,0.0,0.0,0.0,1829.0,100.0
25.43,0.0,0.0,0.0,0.0,0.0,0.0,1833.0,100.0
25.47,0.0,0.0,0.0,0.0,0.0,0.0,1812.0,100.0
25.43,0.0,0.0,0.0,0.0,0.0,0.0,1780.0,100.0
25.41,0.0,0.0,0.0,0.0,0.0,0.0,1782.0,100.0
25.47,0.0,0.0,0.0,0.0,0.0,0.0,1774.0,100.0
25.47,0.0,0.0,0.0,0.0,0.0,0.0,1787.0,100.0
25.49,0.0,0.0,0.0,0.0,0.0,0.0,1798.0,100.0
25.55,0.0,0.0,0.0,0.0,0.0,0.0,1855.0,100.0
25.49,0.0,0.0,0.0,0.0,0.0,0.0,1834.0,100.0
25.49,0.0,0.0,0.0,0.0,0.0,0.0,1846.0,100.0
25.49,0.0,0.0,0.0,0.0,0.0,0.0,1848.0,100.0
25.47,0.0,0.0,0.0,0.0,0.0,0.0,1857.0,100.0
25.47,0.0,0.0,0.0,0.0,0.0,0.0,1856.0,100.0
25.47,0.0,0.0,0.0,0.0,0.0,0.0,1853.0,100.0
25.37,0.0,0.0,0.0,0.0,0.0,0.0,1842.0,100.0
25.41,0.0,0.0,0.0,0.0,0.0,0.0,1814.0,100.0
25.31,0.0,0.0,0.0,0.0,0.0,0.0,1814.0,100.0
25.31,0.0,0.0,0.0,0.0,0.0,119.0,1760.0,100.0
25.29,0.0,0.0,0.0,0.0,0.0,294.0,1706.0,100.0
25.41,0.0,0.0,0.0,0.0,0.0,300.0,1689.0,100.0
25.35,304.0,0.0,0.0,0.0,0.0,317.0,1746.0,100.0
25.47,0.0,0.0,0.0,0.0,0.0,155.0,1798.0,100.0
25.49,0.0,0.0,0.0,0.0,0.0,144.0,1817.0,100.0
25.43,0.0,0.0,0.0,0.0,0.0,166.0,1812.0,100.0
25.41,0.0,0.0,0.0,0.0,0.0,128.0,1808.0,100.0
25.43,0.0,0.0,0.0,0.0,0.0,173.0,1809.0,100.0
25.41,0.0,0.0,0.0,0.0,0.0,161.0,1816.0,15.0
25.69,0.0,0.0,0.0,0.0,0.0,0.0,0.0,15.0
25.23,0.0,0.0,0.0,0.0,0.0,0.0,0.0,15.0
25.31,0.0,0.0,0.0,0.0,0.0,0.0,0.0,15.0
25.25,0.0,0.0,0.0,0.0,0.0,0.0,0.0,15.0
25.87,0.0,0.0,0.0,0.0,0.0,0.0,0.0,15.0
26.83,0.0,0.0,0.0,0.0,0.0,0.0,0.0,15.0
26.97,0.0,0.0,0.0,0.0,0.0,0.0,0.0,15.0
26.97,0.0,0.0,0.0,0.0,0.0,0.0,0.0,15.0
26.23,0.0,0.0,0.0,0.0,40.0,0.0,0.0,15.0
24.89,0.0,0.0,0.0,0.0,0.0,0.0,0.0,15.0
24.83,0.0,0.0,0.0,0.0,0.0,0.0,0.0,15.0
24.87,0.0,0.0,0.0,0.0,0.0,0.0,0.0,15.0
24.81,0.0,0.0,0.0,0.0,0.0,0.0,0.0,15.0
24.75,0.0,0.0,0.0,0.0,0.0,0.0,0.0,15.0
24.77,0.0,0.0,0.0,0.0,0.0,0.0,0.0,15.0
24.77,0.0,0.0,0.0,0.0,0.0,0.0,0.0,15.0
24.93,0.0,0.0,0.0,0.0,0.0,0.0,0.0,15.0
24.87,0.0,0.0,0.0,0.0,0.0,0.0,0.0,15.0
25.11,0.0,0.0,0.0,0.0,0.0,0.0,0.0,15.0
25.07,0.0,0.0,0.0,0.0,0.0,0.0,0.0,15.0
25.13,0.0,0.0,0.0,0.0,0.0,0.0,0.0,15.0
25.07,0.0,0.0,0.0,0.0,0.0,0.0,0.0,15.0
25.05,0.0,0.0,0.0,0.0,0.0,0.0,0.0,15.0
25.07,0.0,0.0,0.0,0.0,0.0,0.0,0.0,15.0
25.07,0.0,0.0,0.0,0.0,0.0,0.0,0.0,15.0
25.07,0.0,0.0,0.0,0.0,0.0,0.0,0.0,15.0
25.07,0.0,0.0,0.0,0.0,0.0,0.0,0.0,15.0
25.29,0.0,0.0,0.0,0.0,0.0,0.0,0.0,15.0
25.49,0.0,0.0,0.0,0.0,0.0,0.0,0.0,15.0
25.55,0.0,0.0,0.0,0.0,0.0,0.0,0.0,15.0
25.59,0.0,0.0,0.0,0.0,0.0,0.0,0.0,15.0
25.53,0.0,0.0,0.0,0.0,0.0,0.0,0.0,15.0
25.55,0.0,0.0,0.0,0.0,0.0,0.0,0.0,15.0
25.53,0.0,0.0,0.0,0.0,0.0,0.0,0.0,15.0
25.55,0.0,0.0,0.0,0.0,0.0,0.0,0.0,15.0
25.55,0.0,0.0,0.0,0.0,0.0,0.0,0.0,15.0
25.55,0.0,0.0,0.0,0.0,0.0,0.0,0.0,15.0
25.53,0.0,0.0,0.0,0.0,0.0,0.0,0.0,15.0
25.53,0.0,0.0,0.0,0.0,0.0,0.0,0.0,15.0
25.49,0.0,0.0,0.0,0.0,0.0,0.0,0.0,15.0
25.55,0.0,0.0,0.0,0.0,0.0,0.0,0.0,15.0
25.47,0.0,0.0,0.0,0.0,0.0,0.0,0.0,15.0
25.43,0.0,0.0,0.0,0.0,0.0,0.0,0.0,15.0
25.47,0.0,0.0,0.0,0.0,0.0,0.0,0.0,15.0
25.23,0.0,0.0,0.0,0.0,0.0,0.0,0.0,15.0
25.05,0.0,0.0,0.0,0.0,0.0,0.0,0.0,15.0
25.05,0.0,0.0,0.0,0.0,0.0,0.0,0.0,15.0
25.25,0.0,0.0,0.0,0.0,0.0,0.0,0.0,15.0
25.35,0.0,0.0,0.0,0.0,0.0,0.0,0.0,15.0
25.55,0.0,0.0,0.0,0.0,0.0,0.0,0.0,15.0
25.73,0.0,0.0,0.0,0.0,0.0,0.0,0.0,15.0
25.73,0.0,0.0,0.0,0.0,0.0,0.0,0.0,15.0
27.41,0.0,0.0,0.0,0.0,0.0,0.0,0.0,15.0
29.71,0.0,0.0,0.0,0.0,0.0,0.0,0.0,17.0
32.91,0.0,0.0,0.0,0.0,0.0,0.0,0.0,27.0
38.19,0.0,0.0,0.0,0.0,0.0,0.0,0.0,36.0
40.25,0.0,0.0,0.0,0.0,0.0,0.0,0.0,47.0
41.81,0.0,0.0,0.0,0.0,0.0,0.0,0.0,56.0
42.09,0.0,0.0,0.0,0.0,0.0,0.0,759.0,66.0
41.91,0.0,502.0,0.0,0.0,623.0,0.0,2501.0,75.0
41.87,0.0,567.0,0.0,0.0,658.0,0.0,2619.0,83.0
41.95,0.0,576.0,0.0,0.0,657.0,0.0,2684.0,93.0
41.85,0.0,613.0,0.0,0.0,644.0,0.0,2699.0,100.0
41.83,0.0,630.0,0.0,0.0,592.0,0.0,2707.0,100.0
41.85,0.0,659.0,0.0,0.0,545.0,0.0,2715.0,100.0
41.87,0.0,696.0,0.0,0.0,373.0,0.0,2714.0,100.0
41.85,0.0,710.0,0.0,0.0,362.0,0.0,2767.0,100.0
41.97,0.0,722.0,0.0,0.0,335.0,0.0,2813.0,100.0
41.97,0.0,732.0,0.0,0.0,336.0,0.0,2818.0,100.0
42.03,0.0,737.0,0.0,0.0,341.0,0.0,2827.0,100.0
42.03,0.0,713.0,0.0,0.0,291.0,0.0,2767.0,100.0
41.95,0.0,683.0,0.0,0.0,291.0,0.0,2758.0,100.0
41.97,0.0,784.0,0.0,0.0,279.0,0.0,2751.0,100.0
41.91,0.0,698.0,0.0,0.0,272.0,0.0,2765.0,100.0
41.83,0.0,717.0,0.0,0.0,304.0,0.0,2773.0,100.0
41.85,0.0,702.0,0.0,0.0,299.0,0.0,2775.0,100.0
41.81,0.0,700.0,0.0,0.0,304.0,0.0,2767.0,100.0
41.73,0.0,701.0,0.0,0.0,303.0,0.0,2773.0,100.0
41.73,0.0,697.0,0.0,0.0,305.0,0.0,2776.0,100.0
41.81,0.0,697.0,0.0,0.0,299.0,0.0,2780.0,100.0
41.71,0.0,715.0,0.0,0.0,368.0,0.0,2766.0,100.0
41.73,0.0,720.0,0.0,0.0,355.0,0.0,2738.0,100.0
41.71,0.0,719.0,0.0,0.0,351.0,0.0,2730.0,100.0
41.81,0.0,733.0,0.0,0.0,389.0,0.0,2714.0,100.0
41.85,0.0,726.0,0.0,0.0,409.0,0.0,2720.0,100.0
41.77,0.0,733.0,0.0,0.0,387.0,0.0,2712.0,100.0
41.77,0.0,741.0,0.0,0.0,434.0,0.0,2646.0,100.0
41.81,0.0,907.0,0.0,0.0,651.0,0.0,2626.0,100.0
41.77,0.0,752.0,0.0,0.0,633.0,0.0,2555.0,100.0
41.83,0.0,752.0,0.0,0.0,702.0,0.0,2542.0,100.0
41.85,0.0,754.0,0.0,0.0,752.0,0.0,2593.0,100.0
41.93,0.0,757.0,0.0,0.0,759.0,0.0,2605.0,100.0
41.93,0.0,766.0,0.0,0.0,748.0,0.0,2603.0,100.0
41.95,0.0,768.0,0.0,0.0,776.0,0.0,2621.0,100.0
41.97,0.0,763.0,0.0,0.0,781.0,0.0,2616.0,100.0
41.97,0.0,768.0,0.0,0.0,784.0,0.0,2626.0,100.0
42.01,0.0,764.0,0.0,0.0,784.0,0.0,2623.0,100.0
42.05,0.0,767.0,0.0,0.0,778.0,0.0,2624.0,100.0
41.97,0.0,759.0,0.0,0.0,719.0,0.0,2618.0,100.0
42.01,0.0,768.0,0.0,0.0,718.0,0.0,2625.0,100.0
42.03,0.0,768.0,0.0,0.0,672.0,0.0,2646.0,100.0
41.97,0.0,766.0,0.0,0.0,590.0,0.0,2669.0,100.0
42.01,0.0,755.0,0.0,0.0,485.0,0.0,2720.0,100.0
41.93,0.0,759.0,0.0,0.0,501.0,0.0,2720.0,100.0
41.91,0.0,758.0,0.0,0.0,496.0,0.0,2731.0,100.0
41.91,0.0,746.0,0.0,0.0,464.0,0.0,2738.0,100.0
41.93,0.0,689.0,0.0,0.0,320.0,0.0,2845.0,100.0
41.95,0.0,688.0,0.0,0.0,310.0,0.0,2852.0,100.0
41.87,0.0,671.0,0.0,0.0,277.0,0.0,2856.0,100.0
41.85,0.0,638.0,0.0,0.0,267.0,0.0,2899.0,100.0
41.93,0.0,580.0,0.0,0.0,250.0,0.0,2929.0,100.0
41.93,0.0,496.0,0.0,0.0,203.0,0.0,2951.0,100.0
41.95,0.0,502.0,0.0,0.0,208.0,0.0,2958.0,100.0
41.97,0.0,511.0,0.0,0.0,219.0,0.0,2959.0,100.0
41.95,0.0,511.0,0.0,0.0,215.0,0.0,2971.0,100.0
41.97,0.0,528.0,0.0,0.0,223.0,0.0,2962.0,100.0
41.95,0.0,525.0,0.0,0.0,221.0,0.0,2974.0,100.0
41.91,0.0,511.0,0.0,0.0,225.0,0.0,2974.0,100.0
41.93,0.0,511.0,0.0,0.0,231.0,0.0,2976.0,100.0
41.93,0.0,528.0,0.0,0.0,184.0,0.0,2985.0,100.0
41.93,0.0,529.0,0.0,0.0,233.0,0.0,2984.0,100.0
41.95,0.0,511.0,0.0,0.0,235.0,0.0,2992.0,100.0
41.91,0.0,511.0,0.0,0.0,231.0,0.0,2982.0,100.0
41.83,0.0,526.0,0.0,0.0,233.0,0.0,2992.0,100.0
41.75,0.0,511.0,0.0,0.0,239.0,0.0,2995.0,100.0
41.75,0.0,528.0,0.0,0.0,209.0,0.0,2994.0,100.0
41.75,0.0,529.0,0.0,0.0,236.0,0.0,2986.0,100.0
41.85,0.0,528.0,0.0,0.0,233.0,0.0,2999.0,100.0
41.91,0.0,561.0,0.0,0.0,239.0,0.0,3000.0,100.0
41.91,0.0,503.0,0.0,0.0,216.0,0.0,2977.0,100.0
41.93,0.0,503.0,0.0,0.0,191.0,0.0,2993.0,100.0
42.01,0.0,511.0,0.0,0.0,215.0,0.0,2988.0,100.0
41.93,0.0,528.0,0.0,0.0,226.0,0.0,2987.0,100.0
41.91,0.0,525.0,0.0,0.0,192.0,0.0,2995.0,100.0
41.93,0.0,528.0,0.0,0.0,229.0,0.0,2996.0,100.0
41.97,0.0,511.0,0.0,0.0,211.0,0.0,3002.0,100.0
41.95,0.0,511.0,0.0,0.0,223.0,0.0,2998.0,100.0
42.01,0.0,525.0,0.0,0.0,233.0,0.0,2999.0,100.0
41.97,0.0,528.0,0.0,0.0,235.0,0.0,3005.0,100.0
42.01,0.0,525.0,0.0,0.0,228.0,0.0,3006.0,100.0
41.93,0.0,528.0,0.0,0.0,238.0,0.0,3002.0,100.0
42.05,0.0,528.0,0.0,0.0,230.0,0.0,3009.0,100.0
41.93,0.0,511.0,0.0,0.0,241.0,0.0,3001.0,100.0
42.01,0.0,511.0,0.0,0.0,227.0,0.0,3006.0,100.0
42.01,0.0,0.0,0.0,0.0,66.0,0.0,3005.0,15.0
41.49,0.0,0.0,0.0,0.0,0.0,0.0,0.0,15.0
25.85,0.0,0.0,0.0,0.0,0.0,0.0,0.0,15.0
26.21,0.0,0.0,0.0,0.0,0.0,0.0,0.0,15.0
26.23,0.0,0.0,0.0,0.0,0.0,0.0,0.0,15.0
26.11,0.0,0.0,0.0,0.0,0.0,0.0,0.0,15.0
26.09,0.0,0.0,0.0,0.0,0.0,0.0,0.0,15.0
26.11,0.0,0.0,0.0,0.0,0.0,0.0,0.0,15.0
26.83,0.0,0.0,0.0,0.0,0.0,0.0,0.0,15.0
27.35,0.0,0.0,0.0,0.0,0.0,0.0,0.0,15.0
27.29,0.0,0.0,0.0,0.0,0.0,0.0,0.0,15.0
27.23,0.0,0.0,0.0,0.0,0.0,0.0,0.0,15.0
27.11,0.0,0.0,0.0,0.0,0.0,0.0,0.0,15.0
27.05,0.0,0.0,0.0,0.0,0.0,0.0,0.0,15.0
27.47,0.0,0.0,0.0,0.0,0.0,0.0,0.0,15.0
28.23,0.0,0.0,0.0,0.0,0.0,0.0,0.0,15.0
25.93,0.0,0.0,0.0,0.0,0.0,0.0,0.0,15.0
25.61,0.0,0.0,0.0,0.0,0.0,0.0,0.0,15.0
25.41,0.0,0.0,0.0,0.0,0.0,0.0,0.0,15.0
25.41,0.0,0.0,0.0,0.0,0.0,0.0,0.0,15.0
25.25,0.0,0.0,0.0,0.0,0.0,0.0,0.0,15.0
25.19,0.0,0.0,0.0,0.0,0.0,0.0,0.0,15.0
25.25,0.0,0.0,0.0,0.0,0.0,0.0,0.0,15.0
25.29,0.0,0.0,0.0,0.0,0.0,0.0,0.0,15.0
25.25,0.0,0.0,0.0,0.0,0.0,0.0,0.0,15.0
25.35,0.0,0.0,0.0,0.0,0.0,0.0,0.0,15.0
25.37,0.0,0.0,0.0,0.0,0.0,0.0,0.0,15.0
25.47,0.0,0.0,0.0,0.0,0.0,0.0,0.0,15.0
25.49,0.0,0.0,0.0,0.0,0.0,0.0,0.0,15.0
25.47,0.0,0.0,0.0,0.0,0.0,0.0,0.0,15.0
25.59,0.0,0.0,0.0,0.0,0.0,0.0,0.0,15.0
25.49,0.0,0.0,0.0,0.0,0.0,0.0,0.0,15.0
25.53,0.0,0.0,0.0,0.0,0.0,0.0,0.0,15.0
25.49,0.0,0.0,0.0,0.0,0.0,0.0,0.0,15.0
25.53,0.0,0.0,0.0,0.0,0.0,0.0,0.0,15.0
25.53,0.0,0.0,0.0,0.0,0.0,0.0,0.0,15.0
25.43,0.0,0.0,0.0,0.0,0.0,0.0,0.0,15.0
25.49,0.0,0.0,0.0,0.0,0.0,0.0,0.0,15.0
25.43,0.0,0.0,0.0,0.0,0.0,0.0,0.0,15.0
25.47,0.0,0.0,0.0,0.0,0.0,0.0,0.0,15.0
25.47,0.0,0.0,0.0,0.0,0.0,0.0,0.0,15.0
25.47,0.0,0.0,0.0,0.0,0.0,0.0,0.0,15.0
25.47,0.0,0.0,0.0,0.0,0.0,0.0,0.0,15.0
25.49,0.0,0.0,0.0,0.0,0.0,0.0,0.0,15.0
25.41,0.0,0.0,0.0,0.0,0.0,0.0,0.0,15.0
25.41,0.0,0.0,0.0,0.0,0.0,0.0,0.0,15.0
25.41,0.0,0.0,0.0,0.0,0.0,0.0,0.0,15.0
25.35,0.0,0.0,0.0,0.0,0.0,0.0,0.0,15.0
25.31,0.0,0.0,0.0,0.0,0.0,0.0,0.0,15.0
25.25,0.0,0.0,0.0,0.0,0.0,0.0,0.0,15.0
25.11,0.0,0.0,0.0,0.0,0.0,0.0,0.0,15.0
25.31,0.0,0.0,0.0,0.0,0.0,0.0,0.0,20.0
25.37,0.0,0.0,0.0,0.0,0.0,0.0,0.0,31.0
25.49,0.0,0.0,0.0,0.0,0.0,0.0,0.0,39.0
25.43,0.0,0.0,0.0,0.0,0.0,0.0,0.0,48.0
25.47,0.0,0.0,0.0,0.0,0.0,0.0,0.0,57.0
25.43,0.0,0.0,0.0,0.0,0.0,0.0,0.0,57.0
25.29,0.0,0.0,0.0,0.0,0.0,0.0,0.0,57.0
25.41,0.0,0.0,0.0,0.0,0.0,0.0,0.0,59.0
25.31,0.0,0.0,0.0,0.0,0.0,0.0,0.0,68.0
25.29,0.0,0.0,0.0,0.0,0.0,0.0,138.0,77.0
25.19,0.0,0.0,0.0,0.0,0.0,0.0,1794.0,86.0
25.17,0.0,0.0,0.0,0.0,0.0,0.0,2060.0,95.0
25.25,0.0,0.0,0.0,0.0,0.0,0.0,2105.0,100.0
25.17,0.0,0.0,0.0,0.0,0.0,0.0,2141.0,100.0
25.17,0.0,0.0,0.0,0.0,0.0,0.0,2141.0,100.0
25.25,0.0,0.0,0.0,0.0,0.0,0.0,2161.0,100.0
25.13,0.0,0.0,0.0,0.0,0.0,0.0,2167.0,100.0
25.17,0.0,0.0,0.0,0.0,0.0,0.0,2164.0,100.0
25.25,0.0,0.0,0.0,0.0,0.0,0.0,2161.0,100.0
25.19,0.0,0.0,0.0,0.0,0.0,0.0,2083.0,100.0
25.17,0.0,0.0,0.0,0.0,0.0,0.0,2068.0,100.0
25.25,0.0,0.0,0.0,0.0,0.0,0.0,2071.0,100.0
25.43,0.0,0.0,0.0,0.0,0.0,0.0,2079.0,100.0
25.53,0.0,0.0,0.0,0.0,0.0,0.0,2094.0,100.0
25.53,0.0,0.0,0.0,0.0,0.0,0.0,2081.0,100.0
25.67,0.0,0.0,0.0,0.0,0.0,0.0,2101.0,100.0
25.63,0.0,0.0,0.0,0.0,0.0,0.0,2100.0,100.0
25.41,0.0,0.0,0.0,0.0,0.0,0.0,2086.0,100.0
25.31,0.0,0.0,0.0,0.0,0.0,0.0,2091.0,100.0
25.23,0.0,0.0,0.0,0.0,0.0,0.0,2098.0,100.0
25.17,0.0,0.0,0.0,0.0,0.0,0.0,2112.0,100.0
25.19,0.0,0.0,0.0,0.0,0.0,0.0,2111.0,100.0
25.17,0.0,0.0,0.0,0.0,0.0,0.0,2119.0,100.0
25.25,0.0,0.0,0.0,0.0,0.0,0.0,2123.0,100.0
25.25,0.0,0.0,0.0,0.0,0.0,0.0,2115.0,100.0
25.17,0.0,0.0,0.0,0.0,0.0,0.0,2121.0,100.0
25.25,0.0,0.0,0.0,0.0,6.0,0.0,2118.0,100.0
25.37,0.0,0.0,0.0,0.0,0.0,0.0,2128.0,100.0
25.41,0.0,0.0,0.0,0.0,0.0,0.0,2133.0,100.0
25.35,0.0,0.0,0.0,0.0,0.0,0.0,2134.0,100.0
25.35,0.0,0.0,0.0,0.0,0.0,0.0,2142.0,100.0
25.37,0.0,0.0,0.0,0.0,0.0,0.0,2137.0,100.0
25.37,0.0,0.0,0.0,0.0,0.0,0.0,2139.0,100.0
25.35,0.0,0.0,0.0,0.0,0.0,0.0,2140.0,100.0
25.31,0.0,0.0,0.0,0.0,0.0,0.0,2142.0,100.0
25.37,0.0,0.0,0.0,0.0,0.0,0.0,2138.0,100.0
25.23,0.0,0.0,0.0,0.0,0.0,0.0,2145.0,100.0
25.23,0.0,0.0,0.0,0.0,0.0,0.0,2141.0,100.0
25.17,0.0,0.0,0.0,0.0,0.0,0.0,2146.0,100.0
25.13,0.0,0.0,0.0,0.0,0.0,0.0,2138.0,100.0
25.17,0.0,0.0,0.0,0.0,0.0,0.0,2133.0,100.0
25.25,0.0,0.0,0.0,0.0,0.0,0.0,2144.0,100.0
25.23,0.0,0.0,0.0,0.0,0.0,0.0,2143.0,100.0
25.23,0.0,0.0,0.0,0.0,0.0,0.0,2140.0,100.0
25.17,0.0,0.0,0.0,0.0,0.0,0.0,2145.0,100.0
25.17,0.0,0.0,0.0,0.0,0.0,0.0,2139.0,100.0
25.13,0.0,0.0,0.0,0.0,0.0,0.0,2140.0,100.0
25.17,0.0,0.0,0.0,0.0,0.0,0.0,2143.0,100.0
25.17,0.0,0.0,0.0,0.0,0.0,0.0,2121.0,100.0
25.11,0.0,0.0,0.0,0.0,0.0,0.0,2125.0,100.0
25.13,0.0,0.0,0.0,0.0,0.0,0.0,2115.0,100.0
25.37,0.0,0.0,0.0,0.0,0.0,0.0,2120.0,100.0
25.47,0.0,0.0,0.0,0.0,0.0,0.0,2113.0,100.0
25.53,0.0,0.0,0.0,0.0,0.0,0.0,2124.0,100.0
25.41,0.0,0.0,0.0,0.0,0.0,0.0,2118.0,100.0
25.35,0.0,0.0,0.0,0.0,0.0,0.0,2124.0,100.0
25.35,0.0,0.0,0.0,0.0,0.0,0.0,2122.0,100.0
25.19,0.0,0.0,0.0,0.0,0.0,0.0,2127.0,100.0
25.11,0.0,0.0,0.0,0.0,0.0,0.0,2137.0,100.0
25.07,0.0,0.0,0.0,0.0,0.0,0.0,2127.0,100.0
25.05,0.0,0.0,0.0,0.0,0.0,0.0,2140.0,100.0
25.13,0.0,0.0,0.0,0.0,0.0,0.0,2137.0,100.0
25.13,0.0,0.0,0.0,0.0,0.0,0.0,2129.0,100.0
25.17,0.0,0.0,0.0,0.0,0.0,0.0,2136.0,100.0
25.11,0.0,0.0,0.0,0.0,0.0,0.0,2143.0,100.0
25.13,0.0,0.0,0.0,0.0,0.0,0.0,2142.0,100.0
25.11,0.0,0.0,0.0,0.0,0.0,0.0,2142.0,100.0
25.13,0.0,0.0,0.0,0.0,0.0,0.0,2163.0,100.0
25.11,0.0,0.0,0.0,0.0,0.0,0.0,2170.0,100.0
25.17,0.0,0.0,0.0,0.0,0.0,0.0,2170.0,100.0
25.19,0.0,0.0,0.0,0.0,0.0,0.0,2179.0,100.0
25.31,0.0,0.0,0.0,0.0,0.0,0.0,2164.0,100.0
25.31,0.0,0.0,0.0,0.0,0.0,0.0,2167.0,100.0
25.31,0.0,0.0,0.0,0.0,0.0,0.0,2166.0,100.0
25.31,0.0,0.0,0.0,0.0,0.0,0.0,2169.0,100.0
25.29,0.0,0.0,0.0,0.0,0.0,0.0,2161.0,100.0
25.25,0.0,0.0,0.0,0.0,0.0,0.0,2164.0,100.0
25.29,0.0,0.0,0.0,0.0,0.0,0.0,2170.0,100.0
25.29,0.0,0.0,0.0,0.0,0.0,0.0,2166.0,100.0
25.23,0.0,0.0,0.0,0.0,0.0,0.0,2172.0,100.0
25.19,0.0,0.0,0.0,0.0,0.0,0.0,2174.0,100.0
25.23,0.0,0.0,0.0,0.0,0.0,0.0,2185.0,100.0
25.17,0.0,0.0,0.0,0.0,0.0,0.0,2177.0,100.0
25.17,0.0,0.0,0.0,0.0,0.0,0.0,2183.0,100.0
25.17,0.0,0.0,0.0,0.0,0.0,0.0,2181.0,15.0
25.17,0.0,0.0,0.0,0.0,0.0,0.0,13.0,15.0
24.89,0.0,0.0,0.0,0.0,0.0,0.0,0.0,15.0
24.95,0.0,0.0,0.0,0.0,0.0,0.0,0.0,15.0
24.99,0.0,0.0,0.0,0.0,0.0,0.0,0.0,15.0
25.05,0.0,0.0,0.0,0.0,0.0,0.0,0.0,15.0
24.95,0.0,0.0,0.0,0.0,0.0,0.0,0.0,15.0
25.11,0.0,0.0,0.0,0.0,0.0,0.0,0.0,15.0
25.17,0.0,0.0,0.0,0.0,0.0,0.0,0.0,15.0
25.13,0.0,0.0,0.0,0.0,0.0,0.0,0.0,15.0
25.23,0.0,0.0,0.0,0.0,0.0,0.0,0.0,15.0
25.17,0.0,0.0,0.0,0.0,0.0,0.0,0.0,15.0
25.11,0.0,0.0,0.0,0.0,0.0,0.0,0.0,15.0
24.81,0.0,0.0,0.0,0.0,0.0,0.0,0.0,15.0
24.81,0.0,0.0,0.0,0.0,0.0,0.0,0.0,15.0
24.81,0.0,0.0,0.0,0.0,0.0,0.0,0.0,15.0
24.81,0.0,0.0,0.0,0.0,0.0,0.0,0.0,15.0
24.81,0.0,0.0,0.0,0.0,0.0,0.0,0.0,15.0
24.77,0.0,0.0,0.0,0.0,0.0,0.0,0.0,15.0
24.81,0.0,0.0,0.0,0.0,0.0,0.0,0.0,15.0
24.77,0.0,0.0,0.0,0.0,0.0,0.0,0.0,15.0
24.81,0.0,0.0,0.0,0.0,0.0,0.0,0.0,15.0
24.77,0.0,0.0,0.0,0.0,0.0,0.0,0.0,15.0
24.77,0.0,0.0,0.0,0.0,0.0,0.0,0.0,15.0
24.83,0.0,0.0,0.0,0.0,0.0,0.0,0.0,15.0
24.77,0.0,0.0,0.0,0.0,0.0,0.0,0.0,15.0
24.81,0.0,0.0,0.0,0.0,0.0,0.0,0.0,15.0
24.77,0.0,0.0,0.0,0.0,0.0,0.0,0.0,15.0
24.77,0.0,0.0,0.0,0.0,0.0,0.0,0.0,15.0
24.77,0.0,0.0,0.0,0.0,0.0,0.0,0.0,15.0
24.81,0.0,0.0,0.0,0.0,0.0,0.0,0.0,15.0
24.81,0.0,0.0,0.0,0.0,0.0,0.0,0.0,15.0
24.81,0.0,0.0,0.0,0.0,0.0,0.0,0.0,15.0
24.81,0.0,0.0,0.0,0.0,0.0,0.0,0.0,15.0
24.81,0.0,0.0,0.0,0.0,0.0,0.0,0.0,15.0
