tempMLX,FSR_A1,FSR_A2,FSR_A3,FSR_B1,FSR_B2,FSR_B3,FSR_C,porcAper
0.0,0.0,0.0,0.0,0.0,0.0,0.0,0.0,15.0
0.0,0.0,0.0,0.0,0.0,0.0,0.0,0.0,15.0
0.0,0.0,0.0,0.0,0.0,0.0,0.0,0.0,15.0
25.41,0.0,0.0,0.0,0.0,0.0,0.0,0.0,15.0
25.43,0.0,0.0,0.0,0.0,0.0,0.0,0.0,15.0
25.35,0.0,0.0,0.0,0.0,0.0,0.0,0.0,15.0
25.31,0.0,0.0,0.0,0.0,0.0,0.0,0.0,15.0
25.13,0.0,0.0,0.0,0.0,0.0,0.0,0.0,15.0
25.11,0.0,0.0,0.0,0.0,0.0,0.0,0.0,15.0
25.07,0.0,0.0,0.0,0.0,0.0,0.0,0.0,15.0
25.11,0.0,0.0,0.0,0.0,0.0,0.0,0.0,15.0
25.07,0.0,0.0,0.0,0.0,0.0,0.0,0.0,15.0
25.35,0.0,96.0,0.0,0.0,0.0,0.0,0.0,15.0
25.47,0.0,0.0,0.0,0.0,0.0,0.0,0.0,15.0
25.47,0.0,0.0,0.0,0.0,0.0,0.0,0.0,15.0
25.49,0.0,0.0,0.0,0.0,0.0,0.0,0.0,15.0
25.49,0.0,0.0,0.0,0.0,0.0,0.0,0.0,15.0
25.53,0.0,0.0,0.0,0.0,0.0,0.0,0.0,15.0
25.53,0.0,0.0,0.0,0.0,0.0,0.0,0.0,15.0
25.53,0.0,0.0,0.0,0.0,0.0,0.0,0.0,15.0
25.61,0.0,0.0,0.0,0.0,0.0,0.0,0.0,15.0
25.67,0.0,0.0,0.0,0.0,0.0,0.0,0.0,15.0
25.81,0.0,0.0,0.0,0.0,0.0,0.0,0.0,15.0
25.81,0.0,0.0,0.0,0.0,0.0,0.0,0.0,15.0
25.75,0.0,0.0,0.0,0.0,0.0,0.0,0.0,15.0
25.79,0.0,0.0,0.0,0.0,0.0,0.0,0.0,15.0
25.81,0.0,0.0,0.0,0.0,0.0,0.0,0.0,15.0
25.79,0.0,0.0,0.0,0.0,0.0,0.0,0.0,15.0
25.73,0.0,0.0,0.0,0.0,0.0,0.0,0.0,15.0
25.73,0.0,0.0,0.0,0.0,0.0,0.0,0.0,15.0
25.79,0.0,0.0,0.0,0.0,0.0,0.0,0.0,15.0
25.81,0.0,0.0,0.0,0.0,0.0,0.0,0.0,15.0
25.73,0.0,0.0,0.0,0.0,0.0,0.0,0.0,15.0
25.81,0.0,0.0,0.0,0.0,0.0,0.0,0.0,15.0
25.73,0.0,0.0,0.0,0.0,0.0,0.0,0.0,15.0
25.79,0.0,0.0,0.0,0.0,0.0,0.0,0.0,15.0
25.81,0.0,0.0,0.0,0.0,0.0,0.0,0.0,15.0
25.79,0.0,0.0,0.0,0.0,0.0,0.0,0.0,15.0
25.73,0.0,0.0,0.0,0.0,0.0,0.0,0.0,15.0
25.69,0.0,0.0,0.0,0.0,0.0,0.0,0.0,15.0
25.69,0.0,0.0,0.0,0.0,0.0,0.0,0.0,15.0
25.53,0.0,0.0,0.0,0.0,0.0,0.0,0.0,15.0
25.49,0.0,0.0,0.0,0.0,0.0,0.0,0.0,15.0
25.43,0.0,0.0,0.0,0.0,0.0,0.0,0.0,15.0
25.43,0.0,0.0,0.0,0.0,0.0,0.0,0.0,15.0
25.35,0.0,0.0,0.0,0.0,0.0,0.0,0.0,15.0
25.41,0.0,0.0,0.0,0.0,0.0,0.0,0.0,15.0
25.31,0.0,0.0,0.0,0.0,0.0,0.0,0.0,15.0
25.31,0.0,0.0,0.0,0.0,0.0,0.0,0.0,15.0
25.29,0.0,0.0,0.0,0.0,0.0,0.0,0.0,15.0
25.31,0.0,0.0,0.0,0.0,0.0,0.0,0.0,15.0
25.19,0.0,0.0,0.0,0.0,0.0,0.0,0.0,15.0
25.25,0.0,0.0,0.0,0.0,0.0,0.0,0.0,15.0
25.13,0.0,0.0,0.0,0.0,0.0,0.0,0.0,15.0
25.23,0.0,0.0,0.0,0.0,0.0,0.0,0.0,15.0
25.25,0.0,0.0,0.0,0.0,0.0,0.0,0.0,15.0
25.29,0.0,0.0,0.0,0.0,0.0,0.0,0.0,15.0
25.19,0.0,0.0,0.0,0.0,0.0,0.0,0.0,15.0
25.31,0.0,0.0,0.0,0.0,0.0,0.0,0.0,15.0
25.29,0.0,0.0,0.0,0.0,0.0,0.0,0.0,15.0
25.25,0.0,0.0,0.0,0.0,0.0,0.0,0.0,15.0
25.17,0.0,0.0,0.0,0.0,0.0,0.0,0.0,15.0
25.25,0.0,0.0,0.0,0.0,0.0,0.0,0.0,15.0
25.25,0.0,0.0,0.0,0.0,0.0,0.0,0.0,15.0
25.19,0.0,0.0,0.0,0.0,0.0,0.0,0.0,15.0
25.19,0.0,0.0,0.0,0.0,0.0,0.0,0.0,15.0
25.13,0.0,0.0,0.0,0.0,0.0,0.0,0.0,15.0
25.23,0.0,0.0,0.0,0.0,0.0,0.0,0.0,15.0
25.23,0.0,0.0,0.0,0.0,0.0,0.0,0.0,15.0
25.25,0.0,0.0,0.0,0.0,0.0,0.0,0.0,15.0
25.23,0.0,0.0,0.0,0.0,0.0,0.0,0.0,15.0
25.13,0.0,0.0,0.0,0.0,0.0,0.0,0.0,15.0
25.25,0.0,0.0,0.0,0.0,0.0,0.0,0.0,15.0
25.19,0.0,0.0,0.0,0.0,0.0,0.0,0.0,15.0
25.29,0.0,0.0,0.0,0.0,0.0,0.0,0.0,15.0
25.31,0.0,0.0,0.0,0.0,0.0,0.0,0.0,15.0
25.31,0.0,0.0,0.0,0.0,0.0,0.0,0.0,15.0
25.37,0.0,0.0,0.0,0.0,0.0,0.0,0.0,15.0
25.31,0.0,0.0,0.0,0.0,0.0,0.0,0.0,15.0
25.29,0.0,0.0,0.0,0.0,0.0,0.0,0.0,15.0
25.35,0.0,0.0,0.0,0.0,0.0,0.0,0.0,15.0
25.37,0.0,0.0,0.0,0.0,0.0,0.0,0.0,15.0
25.37,0.0,0.0,0.0,0.0,0.0,0.0,0.0,15.0
25.35,0.0,0.0,0.0,0.0,0.0,0.0,0.0,15.0
25.37,0.0,0.0,0.0,0.0,0.0,0.0,0.0,15.0
25.29,0.0,0.0,0.0,0.0,0.0,0.0,0.0,15.0
25.31,0.0,0.0,0.0,0.0,0.0,0.0,0.0,15.0
25.37,0.0,0.0,0.0,0.0,0.0,0.0,0.0,15.0
25.35,0.0,0.0,0.0,0.0,0.0,0.0,0.0,15.0
25.29,0.0,0.0,0.0,0.0,0.0,0.0,0.0,15.0
25.29,0.0,0.0,0.0,0.0,0.0,0.0,0.0,15.0
25.35,0.0,0.0,0.0,0.0,0.0,0.0,0.0,15.0
25.25,0.0,0.0,0.0,0.0,0.0,0.0,0.0,15.0
25.29,0.0,0.0,0.0,0.0,0.0,0.0,0.0,15.0
25.25,0.0,0.0,0.0,0.0,0.0,0.0,0.0,15.0
25.19,0.0,0.0,0.0,0.0,0.0,0.0,0.0,15.0
25.19,0.0,0.0,0.0,0.0,0.0,0.0,0.0,15.0
25.25,0.0,0.0,0.0,0.0,0.0,0.0,0.0,15.0
25.17,0.0,0.0,0.0,0.0,0.0,0.0,0.0,15.0
25.17,0.0,0.0,0.0,0.0,0.0,0.0,0.0,15.0
25.25,0.0,0.0,0.0,0.0,0.0,0.0,0.0,15.0
25.25,0.0,0.0,0.0,0.0,0.0,0.0,0.0,15.0
25.23,0.0,0.0,0.0,0.0,0.0,0.0,0.0,15.0
25.25,0.0,0.0,0.0,0.0,0.0,0.0,0.0,15.0
25.19,0.0,0.0,0.0,0.0,0.0,0.0,0.0,15.0
25.29,0.0,0.0,0.0,0.0,0.0,0.0,0.0,15.0
25.25,0.0,0.0,0.0,0.0,0.0,0.0,0.0,15.0
25.17,0.0,0.0,0.0,0.0,0.0,0.0,0.0,15.0
25.11,0.0,0.0,0.0,0.0,0.0,0.0,0.0,15.0
25.07,0.0,0.0,0.0,0.0,0.0,0.0,0.0,15.0
25.05,0.0,0.0,0.0,0.0,0.0,0.0,0.0,15.0
25.13,0.0,0.0,0.0,0.0,0.0,0.0,0.0,15.0
25.07,0.0,0.0,0.0,0.0,0.0,0.0,0.0,15.0
25.13,0.0,0.0,0.0,0.0,0.0,0.0,0.0,15.0
25.13,0.0,0.0,0.0,0.0,0.0,0.0,0.0,15.0
25.13,0.0,0.0,0.0,0.0,0.0,0.0,0.0,15.0
25.29,0.0,0.0,0.0,0.0,0.0,0.0,0.0,15.0
25.29,0.0,0.0,0.0,0.0,0.0,0.0,0.0,15.0
25.25,0.0,0.0,0.0,0.0,0.0,0.0,0.0,15.0
25.19,0.0,0.0,0.0,0.0,0.0,0.0,0.0,15.0
25.13,0.0,0.0,0.0,0.0,0.0,0.0,0.0,15.0
25.17,0.0,0.0,0.0,0.0,0.0,0.0,0.0,15.0
25.13,0.0,0.0,0.0,0.0,0.0,0.0,0.0,15.0
25.11,0.0,0.0,0.0,0.0,0.0,0.0,0.0,15.0
25.11,0.0,0.0,0.0,0.0,0.0,0.0,0.0,15.0
25.13,0.0,0.0,0.0,0.0,0.0,0.0,0.0,15.0
25.17,0.0,0.0,0.0,0.0,0.0,0.0,0.0,15.0
25.19,0.0,0.0,0.0,0.0,0.0,0.0,0.0,15.0
25.19,0.0,0.0,0.0,0.0,0.0,0.0,0.0,15.0
25.17,0.0,0.0,0.0,0.0,0.0,0.0,0.0,15.0
25.19,0.0,0.0,0.0,0.0,0.0,0.0,0.0,15.0
25.19,0.0,0.0,0.0,0.0,0.0,0.0,0.0,15.0
25.11,0.0,0.0,0.0,0.0,0.0,0.0,0.0,15.0
25.17,0.0,0.0,0.0,0.0,0.0,0.0,0.0,15.0
25.17,0.0,0.0,0.0,0.0,0.0,0.0,0.0,15.0
25.17,0.0,0.0,0.0,0.0,0.0,0.0,0.0,15.0
25.13,0.0,0.0,0.0,0.0,0.0,0.0,0.0,15.0
25.11,0.0,0.0,0.0,0.0,0.0,0.0,0.0,15.0
25.11,0.0,0.0,0.0,0.0,0.0,0.0,0.0,15.0
25.13,0.0,0.0,0.0,0.0,0.0,0.0,0.0,15.0
25.11,0.0,0.0,0.0,0.0,0.0,0.0,0.0,15.0
25.13,0.0,0.0,0.0,0.0,0.0,0.0,0.0,15.0
25.11,0.0,0.0,0.0,0.0,0.0,0.0,0.0,15.0
25.05,0.0,0.0,0.0,0.0,0.0,0.0,0.0,15.0
25.13,0.0,0.0,0.0,0.0,0.0,0.0,0.0,15.0
25.11,0.0,0.0,0.0,0.0,0.0,0.0,0.0,15.0
25.11,0.0,0.0,0.0,0.0,0.0,0.0,0.0,15.0
25.13,0.0,0.0,0.0,0.0,0.0,0.0,0.0,15.0
25.01,0.0,0.0,0.0,0.0,0.0,0.0,0.0,15.0
25.05,0.0,0.0,0.0,0.0,0.0,0.0,0.0,15.0
25.11,0.0,0.0,0.0,0.0,0.0,0.0,0.0,15.0
25.17,0.0,0.0,0.0,0.0,0.0,0.0,0.0,15.0
25.11,0.0,0.0,0.0,0.0,0.0,0.0,0.0,15.0
25.07,0.0,0.0,0.0,0.0,0.0,0.0,0.0,15.0
25.17,0.0,0.0,0.0,0.0,0.0,0.0,0.0,15.0
25.19,0.0,0.0,0.0,0.0,0.0,0.0,0.0,15.0
25.23,0.0,0.0,0.0,0.0,0.0,0.0,0.0,15.0
25.17,0.0,0.0,0.0,0.0,0.0,0.0,0.0,15.0
25.25,0.0,0.0,0.0,0.0,0.0,0.0,0.0,15.0
25.17,0.0,0.0,0.0,0.0,0.0,0.0,0.0,15.0
25.19,0.0,0.0,0.0,0.0,0.0,0.0,0.0,15.0
25.19,0.0,0.0,0.0,0.0,0.0,0.0,0.0,15.0
25.25,0.0,0.0,0.0,0.0,0.0,0.0,0.0,16.0
25.13,0.0,0.0,0.0,0.0,0.0,0.0,0.0,26.0
25.25,0.0,0.0,0.0,0.0,0.0,0.0,0.0,35.0
25.25,0.0,0.0,0.0,0.0,0.0,0.0,0.0,43.0
25.25,0.0,0.0,0.0,0.0,0.0,0.0,0.0,53.0
25.11,0.0,0.0,0.0,0.0,0.0,0.0,0.0,64.0
25.13,0.0,0.0,0.0,0.0,0.0,0.0,0.0,75.0
25.11,0.0,0.0,0.0,0.0,0.0,0.0,0.0,85.0
25.07,0.0,0.0,0.0,0.0,0.0,0.0,0.0,94.0
25.13,0.0,0.0,0.0,0.0,0.0,0.0,0.0,100.0
25.25,0.0,0.0,0.0,0.0,0.0,0.0,0.0,100.0
25.17,0.0,0.0,0.0,0.0,0.0,0.0,0.0,100.0
25.13,0.0,0.0,0.0,0.0,0.0,0.0,0.0,100.0
25.07,0.0,0.0,0.0,0.0,0.0,0.0,0.0,100.0
25.07,0.0,0.0,0.0,0.0,0.0,0.0,0.0,100.0
25.01,0.0,0.0,0.0,0.0,0.0,0.0,0.0,100.0
25.05,0.0,0.0,0.0,0.0,0.0,0.0,0.0,100.0
25.01,0.0,0.0,0.0,0.0,0.0,0.0,0.0,100.0
25.11,0.0,0.0,0.0,0.0,0.0,0.0,0.0,100.0
25.11,0.0,0.0,0.0,0.0,0.0,0.0,0.0,100.0
25.07,0.0,0.0,0.0,0.0,0.0,0.0,0.0,100.0
25.07,0.0,0.0,0.0,0.0,0.0,0.0,0.0,100.0
25.17,0.0,0.0,0.0,0.0,0.0,0.0,0.0,100.0
25.11,0.0,0.0,0.0,0.0,0.0,0.0,0.0,100.0
25.17,0.0,0.0,0.0,0.0,0.0,0.0,0.0,100.0
25.11,0.0,0.0,0.0,0.0,0.0,0.0,0.0,100.0
25.19,0.0,0.0,0.0,0.0,0.0,0.0,0.0,100.0
25.25,0.0,0.0,0.0,0.0,0.0,0.0,0.0,100.0
25.17,0.0,0.0,0.0,0.0,0.0,0.0,0.0,100.0
25.25,0.0,0.0,0.0,0.0,0.0,0.0,0.0,100.0
25.25,0.0,0.0,0.0,0.0,0.0,0.0,0.0,100.0
25.23,0.0,0.0,0.0,0.0,0.0,0.0,0.0,100.0
25.25,0.0,0.0,0.0,0.0,0.0,0.0,0.0,100.0
25.19,0.0,0.0,0.0,0.0,0.0,0.0,0.0,100.0
25.17,0.0,0.0,0.0,0.0,0.0,0.0,0.0,100.0
25.13,0.0,0.0,0.0,0.0,0.0,0.0,0.0,100.0
25.17,0.0,0.0,0.0,0.0,0.0,0.0,0.0,100.0
25.17,0.0,0.0,0.0,0.0,0.0,0.0,0.0,100.0
25.23,0.0,0.0,0.0,0.0,0.0,0.0,0.0,100.0
25.13,0.0,0.0,0.0,0.0,0.0,0.0,0.0,100.0
25.13,0.0,0.0,0.0,0.0,0.0,0.0,0.0,100.0
25.13,0.0,0.0,0.0,0.0,0.0,0.0,0.0,100.0
25.17,0.0,0.0,0.0,0.0,0.0,0.0,0.0,100.0
25.19,0.0,0.0,0.0,0.0,0.0,0.0,0.0,100.0
25.23,0.0,0.0,0.0,0.0,0.0,0.0,0.0,100.0
25.13,0.0,0.0,0.0,0.0,0.0,0.0,0.0,100.0
25.07,0.0,0.0,0.0,0.0,0.0,0.0,0.0,100.0
25.07,0.0,0.0,0.0,0.0,0.0,0.0,0.0,100.0
25.13,0.0,0.0,0.0,0.0,0.0,0.0,0.0,100.0
25.13,0.0,0.0,0.0,0.0,0.0,0.0,0.0,100.0
25.07,0.0,0.0,0.0,0.0,0.0,0.0,0.0,100.0
25.11,0.0,0.0,0.0,0.0,0.0,0.0,0.0,100.0
25.05,0.0,0.0,0.0,0.0,0.0,0.0,0.0,100.0
25.11,0.0,0.0,0.0,0.0,0.0,0.0,0.0,100.0
25.11,0.0,0.0,0.0,0.0,0.0,0.0,0.0,100.0
25.05,0.0,0.0,0.0,0.0,0.0,0.0,0.0,100.0
25.13,0.0,0.0,0.0,0.0,0.0,0.0,0.0,100.0
25.17,0.0,0.0,0.0,0.0,0.0,0.0,0.0,100.0
25.17,0.0,0.0,0.0,0.0,0.0,0.0,0.0,100.0
25.17,0.0,0.0,0.0,0.0,0.0,0.0,0.0,100.0
25.11,0.0,0.0,0.0,0.0,0.0,0.0,0.0,100.0
25.17,0.0,0.0,0.0,0.0,0.0,0.0,0.0,100.0
25.13,0.0,0.0,0.0,0.0,0.0,0.0,0.0,100.0
25.11,0.0,0.0,0.0,0.0,0.0,0.0,0.0,100.0
25.11,0.0,0.0,0.0,0.0,0.0,0.0,0.0,100.0
25.13,0.0,0.0,0.0,0.0,0.0,0.0,0.0,100.0
25.19,0.0,0.0,0.0,0.0,0.0,0.0,0.0,100.0
25.13,0.0,0.0,0.0,0.0,0.0,0.0,0.0,100.0
25.23,0.0,0.0,0.0,0.0,0.0,0.0,0.0,100.0
25.17,0.0,0.0,0.0,0.0,0.0,0.0,0.0,100.0
25.25,0.0,0.0,0.0,0.0,0.0,0.0,0.0,100.0
25.13,0.0,0.0,0.0,0.0,0.0,0.0,0.0,100.0
25.17,0.0,0.0,0.0,0.0,0.0,0.0,0.0,100.0
25.25,0.0,0.0,0.0,0.0,0.0,0.0,0.0,100.0
25.17,0.0,0.0,0.0,0.0,0.0,0.0,0.0,100.0
25.13,0.0,0.0,0.0,0.0,0.0,0.0,0.0,100.0
25.25,0.0,0.0,0.0,0.0,0.0,0.0,0.0,15.0
25.25,0.0,0.0,0.0,0.0,0.0,0.0,0.0,15.0
25.25,0.0,0.0,0.0,0.0,0.0,0.0,0.0,15.0
25.07,0.0,0.0,0.0,0.0,0.0,0.0,0.0,15.0
25.07,0.0,0.0,0.0,0.0,0.0,0.0,0.0,15.0
25.07,0.0,0.0,0.0,0.0,0.0,0.0,0.0,15.0
25.11,0.0,0.0,0.0,0.0,0.0,0.0,0.0,15.0
25.07,0.0,0.0,0.0,0.0,0.0,0.0,0.0,15.0
25.01,0.0,0.0,0.0,0.0,0.0,0.0,0.0,15.0
25.01,0.0,0.0,0.0,0.0,0.0,0.0,0.0,15.0
24.99,0.0,0.0,0.0,0.0,0.0,0.0,0.0,15.0
24.99,0.0,0.0,0.0,0.0,0.0,0.0,0.0,15.0
24.99,0.0,0.0,0.0,0.0,0.0,0.0,0.0,15.0
25.01,0.0,0.0,0.0,0.0,0.0,0.0,0.0,15.0
25.01,0.0,0.0,0.0,0.0,0.0,0.0,0.0,15.0
25.05,0.0,0.0,0.0,0.0,0.0,0.0,0.0,15.0
24.99,0.0,0.0,0.0,0.0,0.0,0.0,0.0,15.0
24.99,0.0,0.0,0.0,0.0,0.0,0.0,0.0,15.0
25.01,0.0,0.0,0.0,0.0,0.0,0.0,0.0,15.0
24.99,0.0,0.0,0.0,0.0,0.0,0.0,0.0,15.0
25.01,0.0,0.0,0.0,0.0,0.0,0.0,0.0,15.0
24.95,0.0,0.0,0.0,0.0,0.0,0.0,0.0,15.0
25.01,0.0,0.0,0.0,0.0,0.0,0.0,0.0,15.0
24.95,0.0,0.0,0.0,0.0,0.0,0.0,0.0,15.0
25.11,0.0,0.0,0.0,0.0,0.0,0.0,0.0,15.0
25.19,0.0,0.0,0.0,0.0,0.0,0.0,0.0,15.0
25.19,0.0,0.0,0.0,0.0,0.0,0.0,0.0,15.0
25.13,0.0,0.0,0.0,0.0,0.0,0.0,0.0,15.0
25.11,0.0,0.0,0.0,0.0,0.0,0.0,0.0,15.0
25.17,0.0,0.0,0.0,0.0,0.0,0.0,0.0,15.0
25.13,0.0,0.0,0.0,0.0,0.0,0.0,0.0,15.0
25.23,0.0,0.0,0.0,0.0,0.0,0.0,0.0,15.0
25.23,0.0,0.0,0.0,0.0,0.0,0.0,0.0,15.0
25.25,0.0,0.0,0.0,0.0,0.0,0.0,0.0,15.0
25.11,0.0,0.0,0.0,0.0,0.0,0.0,0.0,15.0
25.13,0.0,0.0,0.0,0.0,0.0,0.0,0.0,15.0
25.07,0.0,0.0,0.0,0.0,0.0,0.0,0.0,15.0
25.07,0.0,0.0,0.0,0.0,0.0,0.0,0.0,15.0
25.07,0.0,0.0,0.0,0.0,0.0,0.0,0.0,15.0
25.25,0.0,0.0,0.0,0.0,0.0,0.0,0.0,15.0
25.13,0.0,0.0,0.0,0.0,0.0,0.0,0.0,15.0
25.05,0.0,0.0,0.0,0.0,0.0,0.0,0.0,15.0
25.07,0.0,0.0,0.0,0.0,0.0,0.0,0.0,15.0
25.11,0.0,0.0,0.0,0.0,0.0,0.0,0.0,15.0
25.05,0.0,0.0,0.0,0.0,0.0,0.0,0.0,15.0
25.05,0.0,0.0,0.0,0.0,0.0,0.0,0.0,15.0
25.11,0.0,0.0,0.0,0.0,0.0,0.0,0.0,15.0
25.05,0.0,0.0,0.0,0.0,0.0,0.0,0.0,15.0
25.05,0.0,0.0,0.0,0.0,0.0,0.0,0.0,15.0
25.01,0.0,0.0,0.0,0.0,0.0,0.0,0.0,15.0
24.99,0.0,0.0,0.0,0.0,0.0,0.0,0.0,15.0
25.05,0.0,0.0,0.0,0.0,0.0,0.0,0.0,15.0
25.01,0.0,0.0,256.0,0.0,0.0,0.0,0.0,15.0
25.01,0.0,0.0,0.0,0.0,0.0,0.0,0.0,15.0
24.99,0.0,0.0,0.0,0.0,0.0,0.0,0.0,15.0
25.05,0.0,0.0,0.0,0.0,0.0,0.0,0.0,15.0
25.11,0.0,0.0,0.0,0.0,0.0,0.0,0.0,15.0
25.01,0.0,0.0,0.0,0.0,0.0,0.0,0.0,15.0
25.01,0.0,0.0,0.0,0.0,0.0,0.0,0.0,15.0
25.05,0.0,0.0,0.0,0.0,0.0,0.0,0.0,15.0
25.07,0.0,0.0,0.0,0.0,0.0,0.0,0.0,15.0
25.07,0.0,0.0,0.0,0.0,0.0,0.0,0.0,15.0
25.11,0.0,0.0,0.0,0.0,0.0,0.0,0.0,15.0
25.11,0.0,0.0,0.0,0.0,0.0,0.0,0.0,15.0
25.11,0.0,0.0,0.0,0.0,0.0,0.0,0.0,15.0
25.17,0.0,0.0,0.0,0.0,0.0,0.0,0.0,15.0
25.25,0.0,0.0,0.0,0.0,0.0,0.0,0.0,15.0
25.07,0.0,0.0,0.0,0.0,0.0,0.0,0.0,15.0
25.07,0.0,0.0,0.0,0.0,0.0,0.0,0.0,15.0
25.11,0.0,0.0,0.0,0.0,0.0,0.0,0.0,15.0
