tempMLX,FSR_A1,FSR_A2,FSR_A3,FSR_B1,FSR_B2,FSR_B3,FSR_C,porcAper
0.0,0.0,0.0,0.0,0.0,0.0,0.0,0.0,15.0
0.0,0.0,0.0,0.0,0.0,0.0,0.0,0.0,15.0
24.77,0.0,0.0,0.0,0.0,0.0,0.0,0.0,15.0
24.81,0.0,0.0,0.0,0.0,0.0,0.0,0.0,15.0
24.87,0.0,0.0,0.0,0.0,0.0,0.0,0.0,15.0
24.81,0.0,0.0,0.0,0.0,0.0,0.0,0.0,15.0
24.75,0.0,0.0,0.0,0.0,0.0,0.0,0.0,15.0
24.81,0.0,0.0,0.0,0.0,0.0,0.0,0.0,15.0
24.89,0.0,0.0,0.0,0.0,0.0,0.0,0.0,15.0
24.69,0.0,0.0,0.0,0.0,0.0,0.0,0.0,15.0
24.63,0.0,0.0,0.0,0.0,0.0,0.0,0.0,15.0
24.59,0.0,0.0,0.0,0.0,0.0,0.0,0.0,15.0
24.63,0.0,0.0,0.0,0.0,0.0,0.0,0.0,15.0
24.69,0.0,0.0,0.0,0.0,0.0,0.0,0.0,15.0
24.65,0.0,0.0,0.0,0.0,0.0,0.0,0.0,15.0
24.59,0.0,0.0,0.0,0.0,0.0,0.0,0.0,15.0
24.65,0.0,0.0,0.0,0.0,0.0,0.0,0.0,15.0
24.59,0.0,0.0,0.0,0.0,0.0,0.0,0.0,15.0
24.65,0.0,0.0,0.0,0.0,0.0,0.0,0.0,15.0
24.65,0.0,0.0,0.0,0.0,0.0,0.0,0.0,15.0
24.65,0.0,0.0,0.0,0.0,0.0,0.0,0.0,15.0
24.75,0.0,0.0,0.0,0.0,0.0,0.0,0.0,15.0
24.75,0.0,0.0,0.0,0.0,0.0,0.0,0.0,15.0
24.65,0.0,0.0,0.0,0.0,0.0,0.0,0.0,15.0
24.65,0.0,0.0,0.0,0.0,0.0,0.0,0.0,15.0
24.75,0.0,0.0,0.0,0.0,0.0,0.0,0.0,15.0
24.83,0.0,0.0,0.0,0.0,0.0,0.0,0.0,15.0
24.81,0.0,0.0,0.0,0.0,0.0,0.0,0.0,15.0
24.87,0.0,0.0,0.0,0.0,0.0,0.0,0.0,15.0
24.81,0.0,0.0,0.0,0.0,0.0,0.0,0.0,15.0
24.77,0.0,0.0,0.0,0.0,0.0,0.0,0.0,15.0
24.75,0.0,0.0,0.0,0.0,0.0,0.0,0.0,15.0
24.69,0.0,0.0,0.0,0.0,0.0,0.0,0.0,15.0
24.75,0.0,0.0,0.0,0.0,0.0,0.0,0.0,15.0
24.75,0.0,0.0,0.0,0.0,0.0,0.0,0.0,15.0
24.69,0.0,0.0,0.0,0.0,0.0,0.0,0.0,15.0
24.77,0.0,0.0,0.0,0.0,0.0,0.0,0.0,15.0
24.77,0.0,0.0,0.0,0.0,0.0,0.0,0.0,15.0
24.75,0.0,0.0,0.0,0.0,0.0,0.0,0.0,15.0
24.77,0.0,0.0,0.0,0.0,0.0,0.0,0.0,15.0
24.69,0.0,0.0,0.0,0.0,0.0,0.0,0.0,15.0
24.71,0.0,0.0,0.0,0.0,0.0,0.0,0.0,15.0
24.83,0.0,0.0,0.0,0.0,0.0,0.0,0.0,15.0
24.83,0.0,0.0,0.0,0.0,0.0,0.0,0.0,15.0
24.69,0.0,0.0,0.0,0.0,0.0,0.0,0.0,15.0
24.63,0.0,0.0,0.0,0.0,0.0,0.0,0.0,15.0
24.59,0.0,0.0,0.0,0.0,0.0,0.0,0.0,15.0
24.63,0.0,0.0,0.0,0.0,0.0,0.0,0.0,15.0
24.75,0.0,0.0,0.0,0.0,0.0,0.0,0.0,15.0
24.77,0.0,0.0,0.0,0.0,0.0,0.0,0.0,15.0
24.81,0.0,0.0,0.0,0.0,0.0,0.0,0.0,15.0
24.87,0.0,0.0,0.0,0.0,0.0,0.0,0.0,15.0
24.87,0.0,0.0,0.0,0.0,0.0,0.0,0.0,15.0
24.77,0.0,0.0,0.0,0.0,0.0,0.0,0.0,15.0
24.83,0.0,0.0,0.0,0.0,0.0,0.0,0.0,15.0
24.81,0.0,0.0,0.0,0.0,0.0,0.0,0.0,15.0
24.87,0.0,0.0,0.0,0.0,0.0,0.0,0.0,15.0
25.17,0.0,0.0,0.0,0.0,0.0,0.0,0.0,15.0
25.11,0.0,0.0,0.0,0.0,0.0,0.0,0.0,15.0
25.01,0.0,0.0,0.0,0.0,0.0,0.0,0.0,15.0
25.01,0.0,0.0,0.0,0.0,0.0,0.0,0.0,15.0
25.11,0.0,0.0,0.0,0.0,0.0,0.0,0.0,15.0
25.05,0.0,0.0,0.0,0.0,0.0,0.0,0.0,15.0
25.01,0.0,0.0,0.0,0.0,0.0,0.0,0.0,15.0
25.11,0.0,0.0,0.0,0.0,0.0,0.0,0.0,15.0
25.01,0.0,0.0,0.0,0.0,0.0,0.0,0.0,15.0
25.01,0.0,0.0,0.0,0.0,0.0,0.0,0.0,15.0
25.11,0.0,0.0,0.0,0.0,0.0,0.0,0.0,15.0
25.13,0.0,0.0,0.0,0.0,0.0,0.0,0.0,15.0
25.05,0.0,0.0,0.0,0.0,0.0,0.0,0.0,15.0
25.05,0.0,0.0,0.0,0.0,0.0,0.0,0.0,15.0
25.05,0.0,0.0,0.0,0.0,0.0,0.0,0.0,15.0
24.93,0.0,0.0,0.0,0.0,0.0,0.0,0.0,15.0
24.95,0.0,0.0,0.0,0.0,0.0,0.0,0.0,15.0
24.89,0.0,0.0,0.0,0.0,0.0,0.0,0.0,15.0
24.99,0.0,0.0,0.0,0.0,0.0,0.0,0.0,15.0
24.99,0.0,0.0,0.0,0.0,0.0,0.0,0.0,15.0
25.05,0.0,0.0,0.0,0.0,0.0,0.0,0.0,15.0
24.99,0.0,0.0,0.0,0.0,0.0,0.0,0.0,15.0
24.99,0.0,0.0,0.0,0.0,0.0,0.0,0.0,15.0
24.95,0.0,0.0,0.0,0.0,0.0,0.0,0.0,15.0
24.99,0.0,0.0,0.0,0.0,0.0,0.0,0.0,15.0
24.99,0.0,0.0,0.0,0.0,0.0,0.0,0.0,15.0
24.95,0.0,0.0,0.0,0.0,0.0,0.0,0.0,15.0
24.93,0.0,0.0,0.0,0.0,0.0,0.0,0.0,15.0
24.95,0.0,0.0,0.0,0.0,0.0,0.0,0.0,15.0
25.05,0.0,0.0,0.0,0.0,0.0,0.0,0.0,15.0
24.99,0.0,0.0,0.0,0.0,0.0,0.0,0.0,15.0
24.95,0.0,0.0,0.0,0.0,0.0,0.0,0.0,15.0
24.89,0.0,0.0,0.0,0.0,0.0,0.0,0.0,15.0
24.99,0.0,0.0,0.0,0.0,0.0,0.0,0.0,15.0
24.93,0.0,0.0,0.0,0.0,0.0,0.0,0.0,15.0
24.95,0.0,0.0,0.0,0.0,0.0,0.0,0.0,15.0
24.93,0.0,0.0,0.0,0.0,0.0,0.0,0.0,15.0
25.01,0.0,0.0,0.0,0.0,0.0,0.0,0.0,15.0
25.01,0.0,0.0,0.0,0.0,0.0,0.0,0.0,15.0
25.01,0.0,0.0,0.0,0.0,0.0,0.0,0.0,15.0
24.95,0.0,0.0,0.0,0.0,0.0,0.0,0.0,15.0
24.89,0.0,0.0,0.0,0.0,0.0,0.0,0.0,15.0
24.99,0.0,0.0,0.0,0.0,0.0,0.0,0.0,15.0
24.99,0.0,0.0,0.0,0.0,0.0,0.0,0.0,15.0
24.93,0.0,0.0,0.0,0.0,0.0,0.0,0.0,15.0
24.95,0.0,0.0,0.0,0.0,0.0,0.0,0.0,15.0
25.01,0.0,0.0,0.0,0.0,0.0,0.0,0.0,15.0
24.95,0.0,0.0,0.0,0.0,0.0,0.0,0.0,15.0
24.89,0.0,0.0,0.0,128.0,0.0,0.0,0.0,15.0
24.99,0.0,0.0,0.0,0.0,0.0,0.0,0.0,15.0
24.89,0.0,0.0,0.0,0.0,0.0,0.0,0.0,15.0
24.95,0.0,0.0,0.0,0.0,0.0,0.0,0.0,15.0
24.93,0.0,0.0,0.0,0.0,0.0,0.0,0.0,15.0
24.89,0.0,0.0,0.0,0.0,0.0,0.0,0.0,15.0
24.95,0.0,0.0,0.0,0.0,0.0,0.0,0.0,15.0
24.89,0.0,0.0,0.0,0.0,0.0,0.0,0.0,15.0
24.95,0.0,0.0,0.0,0.0,0.0,0.0,0.0,15.0
24.95,0.0,0.0,0.0,0.0,0.0,0.0,0.0,15.0
24.95,0.0,0.0,0.0,0.0,0.0,0.0,0.0,15.0
24.89,0.0,0.0,0.0,0.0,0.0,0.0,0.0,15.0
24.89,0.0,0.0,0.0,0.0,0.0,0.0,0.0,15.0
24.93,0.0,0.0,0.0,0.0,0.0,0.0,0.0,15.0
24.83,0.0,0.0,0.0,0.0,0.0,0.0,0.0,15.0
24.87,0.0,0.0,0.0,0.0,0.0,0.0,0.0,15.0
24.83,0.0,0.0,0.0,0.0,0.0,0.0,0.0,15.0
24.93,0.0,0.0,0.0,0.0,0.0,0.0,0.0,15.0
24.89,0.0,0.0,0.0,0.0,0.0,0.0,0.0,15.0
24.81,0.0,0.0,0.0,0.0,0.0,0.0,0.0,15.0
24.77,0.0,0.0,0.0,0.0,0.0,0.0,0.0,15.0
24.83,0.0,0.0,0.0,0.0,0.0,0.0,0.0,15.0
24.83,0.0,0.0,0.0,0.0,0.0,0.0,0.0,15.0
24.81,0.0,0.0,0.0,0.0,0.0,0.0,0.0,15.0
24.75,0.0,0.0,0.0,0.0,0.0,0.0,0.0,15.0
24.75,0.0,0.0,0.0,0.0,0.0,0.0,0.0,15.0
24.69,0.0,0.0,0.0,0.0,0.0,0.0,0.0,15.0
24.71,0.0,0.0,0.0,0.0,0.0,0.0,0.0,15.0
24.83,0.0,0.0,0.0,0.0,0.0,0.0,1.0,15.0
24.83,0.0,0.0,0.0,0.0,0.0,0.0,0.0,16.0
24.75,0.0,0.0,0.0,0.0,0.0,0.0,0.0,16.0
24.83,0.0,0.0,0.0,0.0,0.0,0.0,0.0,16.0
24.83,0.0,0.0,0.0,0.0,0.0,0.0,0.0,16.0
24.77,0.0,0.0,0.0,0.0,0.0,0.0,0.0,16.0
24.81,0.0,0.0,0.0,0.0,0.0,0.0,0.0,16.0
24.81,0.0,0.0,0.0,0.0,0.0,0.0,0.0,16.0
24.81,0.0,0.0,0.0,0.0,0.0,0.0,0.0,16.0
24.81,0.0,0.0,0.0,0.0,0.0,0.0,0.0,16.0
24.71,0.0,0.0,0.0,0.0,0.0,0.0,0.0,16.0
24.71,0.0,0.0,0.0,0.0,0.0,64.0,0.0,16.0
24.57,0.0,0.0,0.0,0.0,0.0,0.0,0.0,16.0
24.53,0.0,0.0,0.0,0.0,0.0,0.0,0.0,16.0
24.51,0.0,0.0,0.0,0.0,0.0,0.0,0.0,16.0
24.59,0.0,0.0,0.0,0.0,0.0,0.0,0.0,16.0
24.65,0.0,0.0,0.0,0.0,0.0,0.0,0.0,16.0
24.71,0.0,0.0,0.0,0.0,0.0,0.0,0.0,16.0
24.69,0.0,0.0,0.0,0.0,0.0,0.0,0.0,16.0
24.75,0.0,0.0,0.0,0.0,0.0,0.0,0.0,18.0
24.81,0.0,0.0,0.0,0.0,0.0,0.0,0.0,26.0
24.87,0.0,0.0,0.0,0.0,0.0,0.0,0.0,36.0
24.77,0.0,0.0,0.0,0.0,0.0,0.0,0.0,45.0
24.93,0.0,0.0,0.0,0.0,0.0,0.0,0.0,55.0
24.83,0.0,0.0,0.0,0.0,0.0,0.0,0.0,65.0
24.77,0.0,0.0,0.0,0.0,0.0,0.0,0.0,75.0
24.77,0.0,0.0,0.0,0.0,0.0,0.0,0.0,84.0
24.71,0.0,0.0,0.0,0.0,0.0,0.0,130.0,92.0
24.75,0.0,0.0,0.0,0.0,0.0,0.0,157.0,92.0
24.77,0.0,0.0,0.0,0.0,0.0,0.0,177.0,92.0
24.75,0.0,0.0,0.0,0.0,0.0,0.0,180.0,92.0
24.65,0.0,0.0,0.0,0.0,0.0,0.0,181.0,92.0
24.75,0.0,0.0,0.0,0.0,0.0,0.0,190.0,92.0
24.81,0.0,0.0,0.0,0.0,0.0,0.0,188.0,92.0
24.83,0.0,0.0,0.0,0.0,0.0,0.0,198.0,92.0
24.93,0.0,0.0,0.0,0.0,0.0,0.0,200.0,92.0
24.81,0.0,0.0,0.0,0.0,0.0,0.0,197.0,92.0
24.65,0.0,0.0,0.0,0.0,0.0,0.0,211.0,92.0
24.71,0.0,0.0,0.0,0.0,0.0,0.0,207.0,92.0
24.77,0.0,0.0,0.0,0.0,0.0,0.0,207.0,92.0
24.81,0.0,0.0,0.0,0.0,0.0,0.0,217.0,92.0
24.71,0.0,0.0,0.0,0.0,0.0,0.0,218.0,92.0
24.71,0.0,0.0,0.0,0.0,0.0,0.0,219.0,92.0
24.81,0.0,0.0,0.0,0.0,0.0,0.0,221.0,92.0
24.71,0.0,0.0,0.0,0.0,0.0,0.0,224.0,92.0
24.71,0.0,0.0,0.0,0.0,0.0,0.0,220.0,92.0
24.77,0.0,0.0,0.0,0.0,0.0,0.0,228.0,92.0
24.77,0.0,0.0,0.0,0.0,0.0,0.0,234.0,92.0
24.71,0.0,0.0,0.0,0.0,0.0,0.0,236.0,92.0
24.75,0.0,0.0,0.0,0.0,0.0,0.0,242.0,92.0
24.77,0.0,0.0,0.0,0.0,0.0,0.0,235.0,92.0
24.75,0.0,0.0,0.0,0.0,0.0,0.0,236.0,92.0
24.69,0.0,0.0,0.0,0.0,0.0,0.0,242.0,92.0
24.65,0.0,0.0,0.0,0.0,0.0,0.0,244.0,92.0
24.63,0.0,0.0,0.0,0.0,0.0,0.0,244.0,92.0
24.77,0.0,0.0,0.0,0.0,0.0,0.0,244.0,92.0
24.71,0.0,0.0,0.0,0.0,0.0,0.0,251.0,92.0
24.81,0.0,0.0,0.0,0.0,0.0,0.0,253.0,92.0
24.93,0.0,0.0,0.0,0.0,0.0,0.0,256.0,92.0
25.01,0.0,0.0,0.0,0.0,0.0,0.0,262.0,92.0
25.05,0.0,0.0,0.0,0.0,0.0,0.0,260.0,92.0
25.07,0.0,0.0,0.0,0.0,0.0,0.0,264.0,92.0
25.13,0.0,0.0,0.0,0.0,0.0,0.0,266.0,92.0
25.01,0.0,0.0,0.0,0.0,0.0,0.0,263.0,92.0
25.13,0.0,0.0,0.0,0.0,0.0,0.0,272.0,92.0
25.17,0.0,0.0,0.0,0.0,0.0,0.0,270.0,92.0
25.13,0.0,0.0,0.0,0.0,0.0,0.0,268.0,92.0
25.13,0.0,0.0,0.0,0.0,0.0,0.0,272.0,92.0
25.11,0.0,0.0,0.0,0.0,0.0,0.0,269.0,92.0
25.13,0.0,0.0,0.0,0.0,0.0,0.0,271.0,92.0
25.11,0.0,0.0,0.0,0.0,0.0,0.0,269.0,92.0
25.17,0.0,0.0,0.0,0.0,0.0,0.0,265.0,92.0
25.17,0.0,0.0,0.0,0.0,0.0,0.0,263.0,92.0
25.19,0.0,0.0,0.0,0.0,0.0,0.0,265.0,92.0
25.17,0.0,0.0,0.0,0.0,0.0,0.0,268.0,92.0
25.19,0.0,0.0,0.0,0.0,0.0,0.0,267.0,92.0
24.95,0.0,0.0,312.0,0.0,0.0,0.0,268.0,92.0
24.95,0.0,0.0,0.0,0.0,0.0,0.0,272.0,92.0
25.01,0.0,0.0,0.0,0.0,0.0,0.0,269.0,92.0
24.93,0.0,0.0,0.0,0.0,0.0,0.0,264.0,92.0
24.83,0.0,0.0,0.0,0.0,0.0,0.0,264.0,92.0
24.87,0.0,0.0,0.0,0.0,0.0,0.0,267.0,92.0
24.89,0.0,0.0,0.0,0.0,0.0,0.0,268.0,92.0
24.87,0.0,0.0,0.0,0.0,0.0,0.0,269.0,92.0
24.89,0.0,0.0,0.0,0.0,0.0,0.0,266.0,92.0
24.89,0.0,0.0,0.0,0.0,0.0,0.0,264.0,92.0
24.89,0.0,0.0,0.0,0.0,0.0,0.0,271.0,92.0
24.99,0.0,0.0,0.0,0.0,0.0,0.0,272.0,92.0
24.89,0.0,0.0,0.0,0.0,0.0,0.0,278.0,92.0
24.93,0.0,0.0,0.0,0.0,0.0,0.0,266.0,92.0
24.87,0.0,0.0,0.0,0.0,0.0,0.0,270.0,92.0
24.87,0.0,0.0,0.0,0.0,0.0,0.0,270.0,92.0
24.87,0.0,0.0,0.0,0.0,0.0,0.0,273.0,92.0
24.83,0.0,0.0,0.0,0.0,0.0,0.0,281.0,92.0
24.83,0.0,0.0,0.0,0.0,0.0,0.0,274.0,92.0
24.89,0.0,0.0,0.0,0.0,0.0,0.0,273.0,92.0
24.87,0.0,0.0,0.0,0.0,0.0,0.0,273.0,92.0
24.89,0.0,0.0,0.0,0.0,0.0,0.0,279.0,92.0
24.99,0.0,0.0,0.0,0.0,0.0,0.0,272.0,92.0
24.87,0.0,0.0,0.0,0.0,0.0,0.0,272.0,92.0
24.89,0.0,0.0,0.0,0.0,0.0,0.0,280.0,92.0
24.93,0.0,0.0,0.0,0.0,0.0,0.0,270.0,92.0
24.95,0.0,0.0,0.0,0.0,0.0,0.0,273.0,92.0
24.89,0.0,0.0,0.0,0.0,0.0,0.0,273.0,92.0
24.89,0.0,0.0,0.0,0.0,0.0,0.0,274.0,92.0
24.87,0.0,0.0,0.0,0.0,0.0,0.0,276.0,92.0
24.87,0.0,0.0,0.0,0.0,0.0,0.0,258.0,15.0
24.89,0.0,0.0,0.0,0.0,0.0,0.0,0.0,15.0
24.95,0.0,0.0,0.0,0.0,0.0,0.0,0.0,15.0
24.95,0.0,0.0,0.0,0.0,0.0,0.0,0.0,15.0
24.95,0.0,0.0,0.0,0.0,0.0,0.0,0.0,15.0
24.93,0.0,0.0,0.0,0.0,0.0,0.0,0.0,15.0
25.17,0.0,0.0,0.0,0.0,0.0,0.0,0.0,15.0
25.67,0.0,0.0,0.0,0.0,0.0,0.0,0.0,15.0
25.31,0.0,0.0,0.0,0.0,0.0,0.0,0.0,15.0
24.95,0.0,0.0,0.0,0.0,0.0,0.0,0.0,15.0
24.89,0.0,0.0,0.0,0.0,0.0,0.0,0.0,15.0
24.93,0.0,0.0,0.0,0.0,0.0,0.0,0.0,18.0
24.87,0.0,0.0,0.0,0.0,0.0,0.0,0.0,21.0
24.83,0.0,0.0,0.0,0.0,0.0,0.0,0.0,21.0
24.87,0.0,0.0,0.0,0.0,0.0,0.0,0.0,21.0
24.87,0.0,0.0,0.0,0.0,0.0,0.0,0.0,21.0
24.89,0.0,0.0,0.0,0.0,0.0,0.0,0.0,21.0
25.05,0.0,0.0,0.0,0.0,0.0,0.0,0.0,21.0
25.05,0.0,0.0,0.0,0.0,0.0,0.0,0.0,21.0
25.01,0.0,0.0,0.0,0.0,0.0,0.0,0.0,21.0
24.93,0.0,0.0,0.0,0.0,0.0,0.0,0.0,21.0
25.01,0.0,0.0,0.0,0.0,0.0,0.0,0.0,21.0
24.99,0.0,0.0,0.0,0.0,0.0,0.0,0.0,21.0
25.05,44.0,0.0,0.0,0.0,0.0,0.0,0.0,21.0
25.11,0.0,0.0,0.0,0.0,0.0,0.0,0.0,21.0
25.07,0.0,0.0,0.0,0.0,0.0,0.0,0.0,21.0
25.07,0.0,0.0,0.0,0.0,0.0,0.0,0.0,21.0
25.05,0.0,0.0,0.0,0.0,0.0,0.0,0.0,21.0
24.99,0.0,0.0,0.0,0.0,0.0,0.0,0.0,21.0
25.11,0.0,0.0,0.0,0.0,0.0,0.0,0.0,21.0
25.11,0.0,0.0,0.0,0.0,0.0,0.0,0.0,21.0
25.11,0.0,0.0,0.0,0.0,0.0,0.0,0.0,21.0
25.11,0.0,0.0,0.0,0.0,0.0,0.0,0.0,21.0
25.13,0.0,0.0,0.0,0.0,0.0,0.0,0.0,21.0
25.11,0.0,0.0,0.0,0.0,0.0,0.0,0.0,21.0
25.17,0.0,0.0,0.0,0.0,0.0,0.0,0.0,21.0
25.17,0.0,0.0,0.0,0.0,0.0,0.0,0.0,21.0
25.13,0.0,0.0,0.0,0.0,0.0,0.0,0.0,21.0
25.19,0.0,0.0,0.0,0.0,0.0,0.0,0.0,21.0
25.17,0.0,0.0,0.0,0.0,0.0,0.0,0.0,21.0
25.11,0.0,0.0,0.0,0.0,0.0,0.0,0.0,21.0
25.19,0.0,0.0,0.0,0.0,0.0,0.0,0.0,21.0
25.17,0.0,0.0,0.0,0.0,0.0,0.0,0.0,15.0
25.01,0.0,0.0,0.0,0.0,0.0,0.0,0.0,15.0
25.05,0.0,0.0,0.0,0.0,0.0,0.0,0.0,15.0
25.01,0.0,0.0,0.0,0.0,0.0,0.0,0.0,15.0
24.93,0.0,0.0,0.0,0.0,0.0,0.0,0.0,15.0
24.99,0.0,0.0,0.0,0.0,0.0,0.0,0.0,15.0
25.01,0.0,0.0,0.0,0.0,0.0,0.0,0.0,15.0
25.07,0.0,0.0,0.0,0.0,0.0,0.0,0.0,15.0
25.11,0.0,0.0,0.0,0.0,0.0,0.0,0.0,15.0
25.19,0.0,0.0,0.0,0.0,0.0,0.0,0.0,19.0
25.29,0.0,0.0,0.0,0.0,0.0,0.0,0.0,28.0
25.31,0.0,0.0,0.0,0.0,0.0,0.0,0.0,39.0
25.37,0.0,0.0,0.0,0.0,0.0,0.0,0.0,48.0
25.35,0.0,0.0,0.0,0.0,0.0,0.0,0.0,54.0
25.37,0.0,0.0,0.0,0.0,0.0,0.0,0.0,54.0
25.31,0.0,0.0,0.0,0.0,0.0,0.0,0.0,61.0
25.25,0.0,0.0,0.0,0.0,0.0,0.0,0.0,71.0
25.23,0.0,0.0,0.0,0.0,0.0,0.0,0.0,80.0
25.19,0.0,0.0,0.0,0.0,0.0,0.0,0.0,89.0
25.07,0.0,198.0,0.0,0.0,0.0,0.0,1315.0,98.0
25.11,0.0,232.0,0.0,0.0,0.0,0.0,1668.0,100.0
25.17,0.0,237.0,0.0,0.0,0.0,0.0,1701.0,100.0
25.13,0.0,256.0,0.0,0.0,0.0,0.0,1729.0,100.0
25.17,0.0,245.0,0.0,0.0,0.0,0.0,1749.0,100.0
25.17,0.0,257.0,0.0,0.0,0.0,0.0,1755.0,100.0
25.11,0.0,256.0,0.0,0.0,0.0,0.0,1753.0,100.0
25.05,0.0,257.0,0.0,0.0,0.0,0.0,1773.0,100.0
25.13,0.0,260.0,0.0,0.0,0.0,0.0,1755.0,100.0
25.05,0.0,251.0,0.0,0.0,0.0,0.0,1745.0,100.0
25.11,0.0,303.0,0.0,0.0,0.0,0.0,1934.0,100.0
25.19,0.0,314.0,0.0,0.0,0.0,0.0,1947.0,100.0
25.13,0.0,310.0,0.0,76.0,0.0,0.0,1967.0,100.0
25.19,0.0,323.0,0.0,0.0,0.0,0.0,1971.0,100.0
25.11,0.0,293.0,0.0,0.0,0.0,0.0,1978.0,100.0
25.07,0.0,317.0,0.0,0.0,0.0,0.0,1970.0,100.0
25.05,0.0,320.0,0.0,0.0,0.0,0.0,1988.0,100.0
25.17,0.0,320.0,0.0,0.0,0.0,0.0,1994.0,100.0
25.19,0.0,311.0,0.0,0.0,0.0,0.0,1988.0,100.0
25.13,0.0,325.0,0.0,0.0,0.0,0.0,1995.0,100.0
25.07,0.0,322.0,0.0,0.0,0.0,0.0,1990.0,100.0
25.17,0.0,329.0,0.0,0.0,0.0,0.0,2005.0,100.0
25.13,0.0,329.0,0.0,0.0,0.0,0.0,1992.0,100.0
25.19,0.0,286.0,0.0,0.0,0.0,0.0,1984.0,100.0
25.25,0.0,218.0,0.0,0.0,0.0,0.0,1971.0,100.0
25.35,0.0,354.0,0.0,0.0,0.0,0.0,1996.0,100.0
25.35,0.0,342.0,0.0,0.0,0.0,0.0,2004.0,100.0
25.29,0.0,344.0,0.0,0.0,0.0,0.0,1999.0,100.0
25.25,0.0,373.0,0.0,0.0,0.0,0.0,2004.0,100.0
25.29,0.0,337.0,0.0,0.0,0.0,0.0,2017.0,100.0
25.19,0.0,346.0,0.0,0.0,0.0,0.0,2025.0,100.0
25.17,0.0,339.0,0.0,0.0,0.0,0.0,2032.0,100.0
25.07,0.0,342.0,0.0,0.0,0.0,0.0,2035.0,100.0
25.13,0.0,341.0,0.0,0.0,0.0,0.0,2067.0,100.0
25.19,0.0,335.0,0.0,0.0,0.0,0.0,2078.0,100.0
25.05,0.0,334.0,0.0,0.0,0.0,0.0,2100.0,100.0
25.13,0.0,336.0,0.0,0.0,0.0,0.0,2116.0,100.0
25.25,0.0,321.0,0.0,0.0,0.0,0.0,2129.0,100.0
25.23,0.0,339.0,0.0,0.0,0.0,0.0,2141.0,100.0
25.25,0.0,336.0,0.0,0.0,0.0,0.0,2159.0,100.0
25.29,0.0,368.0,0.0,0.0,0.0,0.0,2161.0,100.0
25.25,0.0,336.0,0.0,0.0,0.0,0.0,2161.0,100.0
25.25,0.0,327.0,0.0,0.0,0.0,0.0,2166.0,100.0
25.29,0.0,338.0,0.0,0.0,0.0,0.0,2165.0,100.0
25.29,0.0,330.0,0.0,0.0,0.0,0.0,2164.0,100.0
25.25,0.0,336.0,0.0,0.0,0.0,0.0,2160.0,100.0
25.17,0.0,336.0,0.0,0.0,0.0,0.0,2161.0,100.0
25.19,0.0,337.0,0.0,0.0,0.0,0.0,2137.0,100.0
25.19,0.0,339.0,0.0,0.0,0.0,0.0,2111.0,100.0
25.17,0.0,350.0,0.0,0.0,0.0,0.0,2111.0,100.0
25.19,0.0,345.0,0.0,0.0,0.0,0.0,2069.0,100.0
25.07,0.0,342.0,0.0,0.0,0.0,0.0,2046.0,100.0
25.17,0.0,351.0,0.0,0.0,0.0,0.0,2006.0,100.0
25.23,0.0,351.0,0.0,0.0,0.0,0.0,2030.0,100.0
25.31,0.0,355.0,0.0,0.0,0.0,0.0,2024.0,100.0
25.35,0.0,358.0,0.0,0.0,0.0,0.0,2030.0,100.0
25.23,0.0,359.0,0.0,0.0,0.0,0.0,2036.0,100.0
25.17,0.0,356.0,0.0,0.0,0.0,0.0,2047.0,100.0
25.19,0.0,352.0,0.0,0.0,0.0,0.0,2032.0,100.0
25.19,0.0,355.0,0.0,0.0,0.0,0.0,2061.0,100.0
25.17,0.0,360.0,0.0,0.0,0.0,0.0,2044.0,100.0
25.11,0.0,358.0,0.0,0.0,0.0,0.0,2094.0,100.0
25.17,0.0,354.0,0.0,0.0,0.0,0.0,2109.0,100.0
25.11,0.0,353.0,0.0,0.0,0.0,0.0,2149.0,100.0
25.05,0.0,352.0,0.0,0.0,0.0,0.0,2149.0,100.0
25.05,0.0,353.0,0.0,0.0,0.0,0.0,2185.0,100.0
25.17,0.0,347.0,0.0,0.0,0.0,0.0,2183.0,100.0
25.23,0.0,342.0,0.0,0.0,0.0,0.0,2205.0,100.0
25.19,0.0,347.0,0.0,0.0,0.0,0.0,2200.0,100.0
25.11,0.0,346.0,0.0,0.0,0.0,0.0,2207.0,100.0
25.07,0.0,340.0,0.0,0.0,0.0,0.0,2207.0,100.0
25.05,0.0,336.0,0.0,0.0,0.0,0.0,2209.0,100.0
25.11,0.0,338.0,0.0,0.0,0.0,0.0,2207.0,100.0
25.17,0.0,342.0,0.0,0.0,0.0,0.0,2217.0,100.0
25.23,0.0,352.0,0.0,0.0,0.0,0.0,2196.0,100.0
25.05,0.0,281.0,0.0,0.0,0.0,0.0,2196.0,100.0
25.19,0.0,346.0,0.0,0.0,0.0,0.0,2197.0,100.0
25.13,0.0,349.0,0.0,0.0,0.0,0.0,2205.0,100.0
25.23,0.0,340.0,0.0,0.0,0.0,0.0,2204.0,100.0
25.13,0.0,352.0,0.0,0.0,0.0,0.0,2210.0,100.0
25.13,0.0,342.0,0.0,0.0,0.0,0.0,2218.0,100.0
25.29,0.0,346.0,0.0,0.0,0.0,0.0,2204.0,100.0
25.19,0.0,344.0,0.0,0.0,0.0,0.0,2213.0,100.0
25.19,0.0,336.0,0.0,0.0,0.0,0.0,2206.0,100.0
25.19,0.0,346.0,0.0,0.0,0.0,0.0,2207.0,100.0
25.23,0.0,333.0,0.0,0.0,0.0,0.0,2000.0,15.0
25.25,0.0,0.0,0.0,0.0,0.0,0.0,0.0,15.0
25.01,0.0,0.0,0.0,0.0,0.0,0.0,0.0,15.0
25.05,0.0,0.0,0.0,0.0,0.0,0.0,0.0,15.0
24.93,0.0,0.0,0.0,0.0,0.0,0.0,0.0,15.0
24.87,0.0,0.0,0.0,0.0,0.0,0.0,0.0,15.0
25.01,0.0,0.0,0.0,0.0,0.0,0.0,0.0,15.0
25.69,0.0,0.0,0.0,0.0,0.0,0.0,0.0,15.0
25.63,0.0,0.0,0.0,0.0,0.0,0.0,0.0,15.0
25.53,0.0,0.0,0.0,0.0,0.0,0.0,0.0,15.0
25.13,0.0,0.0,0.0,0.0,0.0,0.0,0.0,15.0
24.83,0.0,0.0,0.0,0.0,0.0,0.0,0.0,15.0
24.93,0.0,0.0,0.0,0.0,0.0,0.0,0.0,15.0
24.87,0.0,0.0,0.0,0.0,0.0,0.0,0.0,15.0
24.83,0.0,0.0,0.0,0.0,0.0,0.0,0.0,15.0
24.81,0.0,0.0,0.0,0.0,0.0,0.0,0.0,15.0
24.69,0.0,0.0,0.0,0.0,0.0,0.0,0.0,15.0
24.69,0.0,0.0,0.0,0.0,0.0,0.0,0.0,15.0
24.63,0.0,0.0,0.0,0.0,0.0,0.0,0.0,15.0
24.69,0.0,0.0,0.0,0.0,0.0,0.0,0.0,15.0
24.71,0.0,0.0,0.0,0.0,0.0,0.0,0.0,15.0
24.69,0.0,0.0,0.0,0.0,0.0,0.0,0.0,15.0
24.69,0.0,0.0,0.0,0.0,0.0,0.0,0.0,15.0
24.71,0.0,0.0,0.0,0.0,0.0,0.0,0.0,15.0
24.75,0.0,0.0,0.0,0.0,0.0,0.0,0.0,15.0
24.69,0.0,0.0,0.0,0.0,0.0,0.0,0.0,15.0
24.69,0.0,320.0,0.0,0.0,0.0,0.0,0.0,15.0
24.89,0.0,0.0,0.0,0.0,0.0,0.0,0.0,15.0
24.87,0.0,0.0,0.0,0.0,0.0,0.0,0.0,15.0
24.83,0.0,0.0,0.0,0.0,0.0,0.0,0.0,15.0
24.77,0.0,0.0,0.0,0.0,0.0,0.0,0.0,15.0
24.81,0.0,0.0,0.0,0.0,0.0,0.0,0.0,15.0
24.77,0.0,0.0,0.0,0.0,0.0,0.0,0.0,15.0
24.89,0.0,0.0,0.0,0.0,0.0,0.0,0.0,15.0
24.89,0.0,0.0,0.0,0.0,0.0,0.0,0.0,15.0
24.95,0.0,0.0,0.0,0.0,0.0,0.0,0.0,15.0
24.99,0.0,0.0,0.0,0.0,0.0,0.0,0.0,15.0
24.95,0.0,0.0,0.0,0.0,0.0,0.0,0.0,15.0
24.95,0.0,0.0,0.0,0.0,0.0,0.0,0.0,15.0
25.01,0.0,0.0,0.0,0.0,0.0,0.0,0.0,15.0
24.99,0.0,0.0,0.0,0.0,0.0,0.0,0.0,15.0
24.93,0.0,0.0,0.0,0.0,0.0,0.0,0.0,15.0
24.99,0.0,0.0,0.0,0.0,0.0,0.0,0.0,15.0
24.95,0.0,0.0,0.0,0.0,0.0,0.0,0.0,15.0
24.99,0.0,0.0,0.0,0.0,0.0,0.0,0.0,15.0
24.93,0.0,0.0,0.0,0.0,0.0,0.0,0.0,15.0
24.95,0.0,0.0,0.0,0.0,0.0,0.0,0.0,15.0
25.23,0.0,0.0,0.0,0.0,0.0,0.0,0.0,15.0
25.47,0.0,0.0,0.0,0.0,0.0,0.0,0.0,15.0
25.75,0.0,0.0,0.0,0.0,0.0,0.0,0.0,15.0
28.95,0.0,0.0,0.0,0.0,0.0,0.0,0.0,15.0
32.59,0.0,0.0,0.0,0.0,0.0,0.0,0.0,15.0
33.35,0.0,0.0,0.0,0.0,0.0,0.0,0.0,22.0
34.37,0.0,0.0,0.0,0.0,0.0,0.0,0.0,32.0
34.99,0.0,0.0,0.0,0.0,0.0,0.0,0.0,43.0
35.31,0.0,0.0,0.0,0.0,0.0,0.0,0.0,53.0
35.39,0.0,0.0,0.0,0.0,0.0,0.0,0.0,62.0
35.15,0.0,0.0,0.0,0.0,0.0,0.0,0.0,71.0
35.07,0.0,0.0,0.0,0.0,0.0,0.0,0.0,80.0
35.05,0.0,0.0,0.0,0.0,0.0,0.0,0.0,90.0
35.05,0.0,0.0,0.0,0.0,0.0,0.0,0.0,100.0
35.13,0.0,0.0,0.0,0.0,0.0,0.0,14.0,100.0
35.13,0.0,0.0,0.0,0.0,0.0,0.0,16.0,100.0
35.13,0.0,0.0,0.0,0.0,0.0,0.0,13.0,100.0
35.13,0.0,0.0,0.0,0.0,0.0,0.0,18.0,100.0
35.19,0.0,0.0,0.0,0.0,0.0,0.0,14.0,100.0
35.09,0.0,0.0,0.0,0.0,0.0,0.0,0.0,100.0
35.19,0.0,0.0,0.0,0.0,0.0,0.0,0.0,100.0
35.21,0.0,0.0,0.0,0.0,0.0,0.0,0.0,100.0
35.27,0.0,0.0,0.0,0.0,0.0,0.0,0.0,100.0
35.27,0.0,0.0,0.0,0.0,0.0,0.0,0.0,100.0
35.23,0.0,0.0,0.0,0.0,0.0,0.0,0.0,100.0
35.31,0.0,0.0,0.0,0.0,0.0,0.0,0.0,100.0
35.23,0.0,0.0,0.0,0.0,0.0,0.0,0.0,100.0
35.29,0.0,0.0,0.0,0.0,0.0,0.0,0.0,100.0
35.21,0.0,0.0,0.0,0.0,0.0,0.0,0.0,100.0
35.21,0.0,0.0,0.0,0.0,0.0,0.0,0.0,100.0
35.21,0.0,0.0,0.0,0.0,0.0,0.0,0.0,100.0
35.13,0.0,0.0,0.0,0.0,0.0,0.0,0.0,100.0
35.15,0.0,0.0,0.0,0.0,0.0,0.0,0.0,100.0
35.15,0.0,0.0,0.0,0.0,0.0,0.0,0.0,100.0
35.13,0.0,0.0,0.0,0.0,0.0,0.0,0.0,100.0
35.21,0.0,0.0,0.0,0.0,0.0,0.0,0.0,100.0
35.19,0.0,0.0,0.0,0.0,0.0,0.0,0.0,100.0
35.23,0.0,0.0,0.0,0.0,0.0,0.0,0.0,100.0
35.29,0.0,0.0,0.0,0.0,0.0,0.0,0.0,100.0
35.23,0.0,0.0,0.0,0.0,0.0,0.0,0.0,100.0
35.21,0.0,0.0,0.0,0.0,0.0,0.0,0.0,100.0
35.15,0.0,0.0,0.0,0.0,0.0,0.0,0.0,100.0
35.15,0.0,0.0,0.0,0.0,0.0,0.0,0.0,100.0
35.15,0.0,0.0,0.0,0.0,0.0,0.0,0.0,100.0
35.19,0.0,0.0,0.0,0.0,0.0,0.0,0.0,100.0
35.09,0.0,0.0,0.0,0.0,0.0,0.0,0.0,100.0
35.15,0.0,0.0,0.0,0.0,0.0,0.0,0.0,100.0
35.15,0.0,0.0,0.0,0.0,0.0,0.0,0.0,100.0
35.23,0.0,0.0,0.0,0.0,0.0,0.0,0.0,100.0
35.23,0.0,0.0,0.0,0.0,0.0,0.0,0.0,100.0
35.31,0.0,0.0,0.0,0.0,0.0,0.0,0.0,100.0
35.43,0.0,0.0,0.0,0.0,0.0,0.0,0.0,100.0
35.47,0.0,0.0,0.0,0.0,0.0,0.0,0.0,100.0
35.37,0.0,0.0,0.0,0.0,0.0,0.0,0.0,100.0
35.45,0.0,0.0,0.0,0.0,0.0,0.0,0.0,100.0
35.35,0.0,0.0,0.0,0.0,0.0,0.0,0.0,100.0
35.51,0.0,0.0,0.0,0.0,0.0,0.0,0.0,100.0
35.45,0.0,0.0,0.0,0.0,0.0,0.0,0.0,100.0
35.51,0.0,0.0,0.0,0.0,0.0,0.0,0.0,100.0
35.47,0.0,0.0,0.0,0.0,0.0,0.0,0.0,100.0
35.43,0.0,0.0,0.0,0.0,0.0,0.0,0.0,100.0
35.45,0.0,0.0,0.0,0.0,0.0,0.0,0.0,100.0
35.51,0.0,0.0,0.0,0.0,0.0,0.0,0.0,100.0
35.47,0.0,0.0,0.0,0.0,0.0,0.0,0.0,100.0
35.45,0.0,0.0,0.0,0.0,0.0,0.0,0.0,100.0
35.47,0.0,0.0,0.0,0.0,0.0,0.0,0.0,100.0
35.45,0.0,0.0,0.0,0.0,0.0,0.0,0.0,100.0
35.45,0.0,0.0,0.0,0.0,0.0,0.0,0.0,100.0
35.43,0.0,0.0,0.0,0.0,0.0,0.0,0.0,100.0
35.43,0.0,0.0,0.0,0.0,0.0,0.0,0.0,100.0
35.45,0.0,0.0,0.0,0.0,0.0,0.0,0.0,100.0
35.47,0.0,0.0,0.0,0.0,0.0,0.0,0.0,100.0
35.45,0.0,0.0,0.0,0.0,0.0,0.0,0.0,100.0
35.47,0.0,0.0,0.0,0.0,0.0,0.0,0.0,100.0
35.43,0.0,0.0,0.0,0.0,0.0,0.0,0.0,100.0
35.53,0.0,0.0,0.0,0.0,0.0,0.0,0.0,100.0
35.43,0.0,0.0,0.0,0.0,0.0,0.0,0.0,100.0
35.45,0.0,0.0,0.0,0.0,0.0,0.0,0.0,100.0
35.47,0.0,0.0,0.0,0.0,0.0,0.0,0.0,100.0
35.43,0.0,0.0,0.0,0.0,0.0,0.0,0.0,100.0
35.43,0.0,0.0,0.0,0.0,0.0,0.0,0.0,100.0
35.45,0.0,0.0,0.0,0.0,0.0,0.0,0.0,100.0
35.45,0.0,0.0,0.0,0.0,0.0,0.0,0.0,100.0
35.39,0.0,0.0,0.0,0.0,0.0,0.0,0.0,100.0
35.47,0.0,0.0,0.0,0.0,0.0,0.0,0.0,100.0
35.35,0.0,0.0,0.0,0.0,0.0,0.0,0.0,100.0
35.47,0.0,0.0,0.0,0.0,0.0,0.0,0.0,100.0
35.35,0.0,0.0,0.0,0.0,0.0,0.0,0.0,100.0
35.39,0.0,0.0,0.0,0.0,0.0,0.0,0.0,100.0
35.43,0.0,0.0,0.0,0.0,0.0,0.0,0.0,100.0
35.39,0.0,0.0,0.0,0.0,0.0,0.0,0.0,100.0
35.45,0.0,0.0,0.0,0.0,0.0,0.0,0.0,100.0
35.37,0.0,0.0,0.0,0.0,0.0,0.0,0.0,100.0
35.43,0.0,0.0,0.0,0.0,0.0,0.0,0.0,100.0
35.45,0.0,0.0,0.0,0.0,0.0,0.0,0.0,100.0
35.35,0.0,0.0,0.0,0.0,0.0,0.0,0.0,100.0
35.39,0.0,0.0,0.0,0.0,0.0,0.0,0.0,100.0
35.51,0.0,0.0,0.0,0.0,48.0,0.0,0.0,15.0
36.21,0.0,0.0,0.0,0.0,0.0,0.0,0.0,15.0
32.59,0.0,0.0,0.0,0.0,0.0,0.0,0.0,15.0
25.99,0.0,0.0,0.0,0.0,0.0,0.0,0.0,15.0
25.69,0.0,0.0,0.0,0.0,0.0,0.0,0.0,15.0
27.29,0.0,0.0,0.0,0.0,0.0,0.0,0.0,15.0
27.69,0.0,0.0,0.0,0.0,0.0,0.0,0.0,15.0
27.59,0.0,0.0,0.0,0.0,0.0,0.0,0.0,15.0
27.73,0.0,0.0,0.0,0.0,0.0,0.0,0.0,15.0
25.49,0.0,0.0,0.0,0.0,0.0,0.0,0.0,15.0
25.43,0.0,0.0,0.0,0.0,0.0,0.0,0.0,15.0
25.47,0.0,0.0,0.0,0.0,0.0,0.0,0.0,15.0
25.41,0.0,0.0,0.0,0.0,0.0,0.0,0.0,15.0
25.37,0.0,0.0,0.0,0.0,0.0,0.0,0.0,15.0
25.35,0.0,0.0,0.0,0.0,0.0,0.0,0.0,15.0
25.37,0.0,0.0,0.0,0.0,0.0,0.0,0.0,15.0
25.41,0.0,0.0,0.0,0.0,0.0,0.0,0.0,15.0
25.47,0.0,0.0,0.0,0.0,0.0,0.0,0.0,15.0
25.43,0.0,0.0,0.0,0.0,0.0,0.0,0.0,15.0
25.43,0.0,0.0,0.0,0.0,0.0,0.0,0.0,15.0
25.47,0.0,0.0,0.0,0.0,0.0,0.0,0.0,15.0
25.43,0.0,0.0,0.0,0.0,0.0,0.0,0.0,15.0
25.43,0.0,0.0,0.0,0.0,0.0,0.0,0.0,15.0
25.43,0.0,0.0,0.0,0.0,0.0,0.0,0.0,15.0
25.47,0.0,0.0,0.0,0.0,0.0,0.0,0.0,15.0
25.37,0.0,0.0,0.0,0.0,0.0,0.0,0.0,15.0
25.47,0.0,0.0,0.0,0.0,0.0,0.0,0.0,15.0
25.41,0.0,0.0,0.0,0.0,0.0,0.0,0.0,15.0
25.37,0.0,0.0,0.0,0.0,0.0,0.0,0.0,15.0
25.41,0.0,0.0,0.0,0.0,0.0,0.0,0.0,15.0
25.41,0.0,0.0,0.0,0.0,0.0,0.0,0.0,15.0
25.47,0.0,0.0,0.0,0.0,0.0,0.0,0.0,15.0
25.43,0.0,0.0,0.0,0.0,0.0,0.0,0.0,15.0
25.43,0.0,0.0,0.0,0.0,0.0,0.0,0.0,15.0
25.41,0.0,0.0,0.0,0.0,0.0,0.0,0.0,15.0
25.41,0.0,0.0,0.0,0.0,0.0,0.0,0.0,15.0
25.37,0.0,0.0,0.0,0.0,0.0,0.0,0.0,15.0
25.37,0.0,0.0,0.0,0.0,0.0,0.0,0.0,15.0
25.49,0.0,0.0,0.0,0.0,0.0,0.0,0.0,15.0
25.59,0.0,0.0,0.0,0.0,0.0,0.0,0.0,15.0
25.49,0.0,0.0,0.0,0.0,0.0,0.0,0.0,15.0
25.37,0.0,0.0,0.0,0.0,0.0,0.0,0.0,15.0
25.31,0.0,0.0,0.0,0.0,0.0,0.0,0.0,15.0
25.37,0.0,0.0,0.0,0.0,0.0,0.0,0.0,15.0
25.29,0.0,0.0,0.0,0.0,0.0,0.0,0.0,15.0
25.23,0.0,0.0,0.0,0.0,0.0,0.0,0.0,15.0
25.31,0.0,0.0,0.0,0.0,0.0,0.0,0.0,15.0
25.29,0.0,0.0,0.0,0.0,0.0,0.0,0.0,15.0
25.31,0.0,0.0,0.0,0.0,0.0,0.0,0.0,15.0
25.31,0.0,0.0,0.0,0.0,0.0,0.0,0.0,15.0
25.23,0.0,0.0,0.0,0.0,0.0,0.0,0.0,15.0
25.31,0.0,0.0,0.0,0.0,0.0,0.0,0.0,15.0
25.31,0.0,0.0,0.0,0.0,0.0,0.0,0.0,15.0
25.37,0.0,0.0,0.0,0.0,0.0,0.0,0.0,15.0
25.35,0.0,0.0,0.0,0.0,0.0,0.0,0.0,15.0
25.43,0.0,0.0,0.0,0.0,0.0,0.0,0.0,15.0
25.47,0.0,0.0,0.0,0.0,0.0,0.0,0.0,22.0
25.47,0.0,0.0,0.0,0.0,0.0,0.0,0.0,32.0
25.49,0.0,0.0,0.0,0.0,0.0,0.0,0.0,41.0
25.43,0.0,0.0,0.0,0.0,0.0,0.0,0.0,52.0
25.49,0.0,0.0,0.0,0.0,0.0,0.0,0.0,61.0
25.43,0.0,0.0,0.0,0.0,0.0,0.0,0.0,71.0
25.43,0.0,0.0,0.0,0.0,0.0,0.0,0.0,81.0
25.41,0.0,0.0,0.0,0.0,0.0,0.0,0.0,91.0
25.25,0.0,0.0,0.0,0.0,0.0,443.0,73.0,100.0
25.31,0.0,0.0,0.0,0.0,0.0,379.0,81.0,100.0
25.19,0.0,0.0,0.0,0.0,0.0,0.0,33.0,100.0
25.35,0.0,0.0,0.0,0.0,0.0,0.0,71.0,100.0
25.31,0.0,0.0,0.0,0.0,0.0,0.0,104.0,100.0
25.29,0.0,0.0,0.0,0.0,0.0,0.0,107.0,100.0
25.23,0.0,0.0,0.0,0.0,0.0,0.0,119.0,100.0
25.25,0.0,0.0,0.0,0.0,0.0,0.0,109.0,100.0
25.23,0.0,0.0,0.0,0.0,0.0,0.0,93.0,100.0
25.25,0.0,0.0,0.0,0.0,0.0,0.0,96.0,100.0
25.19,0.0,0.0,0.0,0.0,0.0,0.0,100.0,100.0
25.29,0.0,0.0,0.0,0.0,0.0,0.0,98.0,100.0
25.35,0.0,0.0,0.0,0.0,0.0,0.0,118.0,100.0
25.41,0.0,0.0,0.0,0.0,0.0,9.0,150.0,100.0
25.49,0.0,0.0,0.0,0.0,0.0,24.0,148.0,100.0
25.47,0.0,0.0,0.0,0.0,0.0,70.0,141.0,100.0
25.47,0.0,0.0,0.0,0.0,0.0,59.0,143.0,100.0
25.59,0.0,0.0,0.0,0.0,0.0,80.0,138.0,100.0
25.59,0.0,0.0,0.0,0.0,0.0,101.0,126.0,100.0
25.41,0.0,0.0,0.0,0.0,0.0,110.0,131.0,100.0
25.41,0.0,0.0,0.0,0.0,0.0,119.0,132.0,100.0
25.43,0.0,0.0,0.0,0.0,0.0,113.0,126.0,100.0
25.31,24.0,0.0,0.0,0.0,0.0,127.0,113.0,100.0
25.23,0.0,0.0,0.0,0.0,0.0,132.0,112.0,100.0
25.25,0.0,0.0,0.0,0.0,0.0,127.0,107.0,100.0
25.23,0.0,0.0,0.0,0.0,0.0,119.0,104.0,100.0
25.11,0.0,0.0,0.0,0.0,0.0,121.0,107.0,100.0
25.11,0.0,0.0,0.0,0.0,0.0,121.0,110.0,100.0
25.23,0.0,0.0,0.0,0.0,0.0,128.0,115.0,100.0
25.23,0.0,0.0,0.0,0.0,0.0,118.0,104.0,100.0
25.31,0.0,0.0,0.0,0.0,0.0,128.0,104.0,100.0
25.31,0.0,0.0,0.0,0.0,0.0,137.0,100.0,100.0
25.31,0.0,0.0,0.0,0.0,0.0,142.0,109.0,100.0
25.37,0.0,0.0,0.0,0.0,0.0,147.0,99.0,100.0
25.35,0.0,0.0,0.0,0.0,0.0,142.0,107.0,100.0
25.37,0.0,0.0,0.0,0.0,0.0,147.0,110.0,100.0
25.29,0.0,0.0,0.0,0.0,0.0,146.0,97.0,100.0
25.31,0.0,0.0,0.0,0.0,0.0,156.0,110.0,100.0
25.25,0.0,0.0,0.0,0.0,0.0,153.0,107.0,100.0
25.23,0.0,0.0,0.0,0.0,0.0,163.0,98.0,100.0
25.19,0.0,0.0,0.0,0.0,0.0,160.0,104.0,100.0
25.13,0.0,0.0,0.0,0.0,0.0,173.0,102.0,100.0
25.23,0.0,0.0,0.0,0.0,0.0,178.0,100.0,100.0
25.25,0.0,0.0,0.0,0.0,0.0,182.0,95.0,100.0
25.23,0.0,0.0,0.0,0.0,0.0,182.0,99.0,100.0
25.29,0.0,0.0,0.0,0.0,0.0,184.0,97.0,100.0
25.13,0.0,0.0,0.0,0.0,0.0,198.0,94.0,100.0
25.11,0.0,0.0,0.0,0.0,0.0,0.0,101.0,100.0
25.13,0.0,0.0,0.0,0.0,0.0,204.0,94.0,100.0
25.11,0.0,0.0,0.0,0.0,0.0,205.0,93.0,100.0
25.11,0.0,0.0,0.0,0.0,0.0,208.0,95.0,100.0
25.37,0.0,0.0,0.0,0.0,0.0,208.0,103.0,100.0
25.37,0.0,0.0,0.0,0.0,0.0,206.0,96.0,100.0
25.13,0.0,0.0,0.0,0.0,0.0,201.0,104.0,100.0
25.05,0.0,0.0,0.0,0.0,0.0,208.0,106.0,100.0
25.07,0.0,0.0,0.0,0.0,0.0,205.0,101.0,100.0
25.01,0.0,0.0,0.0,0.0,0.0,204.0,98.0,100.0
25.07,0.0,0.0,0.0,0.0,0.0,200.0,103.0,100.0
25.13,0.0,0.0,0.0,0.0,0.0,194.0,102.0,100.0
25.23,0.0,0.0,0.0,0.0,0.0,199.0,110.0,100.0
25.23,0.0,0.0,0.0,0.0,0.0,208.0,106.0,100.0
25.31,0.0,0.0,0.0,0.0,0.0,198.0,105.0,100.0
25.23,0.0,0.0,0.0,0.0,0.0,208.0,106.0,100.0
25.11,0.0,0.0,0.0,0.0,0.0,207.0,104.0,100.0
25.13,0.0,0.0,0.0,0.0,0.0,211.0,105.0,100.0
25.13,0.0,0.0,0.0,0.0,0.0,208.0,107.0,100.0
25.11,0.0,0.0,0.0,0.0,0.0,212.0,105.0,100.0
25.17,0.0,0.0,0.0,0.0,0.0,212.0,102.0,100.0
25.13,0.0,0.0,0.0,0.0,0.0,209.0,112.0,100.0
25.19,0.0,0.0,0.0,0.0,0.0,208.0,113.0,100.0
25.13,0.0,0.0,0.0,0.0,0.0,202.0,112.0,100.0
25.17,0.0,0.0,0.0,0.0,0.0,208.0,106.0,100.0
25.11,456.0,0.0,0.0,0.0,0.0,213.0,106.0,100.0
25.11,0.0,0.0,0.0,0.0,0.0,210.0,105.0,100.0
25.11,0.0,0.0,0.0,0.0,0.0,216.0,107.0,100.0
25.13,0.0,0.0,0.0,0.0,0.0,215.0,109.0,100.0
25.13,0.0,0.0,0.0,0.0,0.0,223.0,105.0,100.0
25.13,0.0,0.0,0.0,0.0,0.0,219.0,108.0,100.0
25.11,0.0,0.0,0.0,0.0,0.0,217.0,107.0,100.0
25.13,0.0,0.0,0.0,0.0,0.0,214.0,108.0,100.0
25.19,0.0,0.0,0.0,0.0,0.0,213.0,108.0,100.0
25.13,0.0,0.0,0.0,0.0,0.0,225.0,110.0,100.0
25.11,0.0,0.0,0.0,0.0,0.0,0.0,99.0,100.0
25.13,0.0,0.0,0.0,0.0,0.0,0.0,0.0,15.0
25.35,0.0,0.0,0.0,0.0,0.0,0.0,0.0,15.0
25.13,0.0,0.0,0.0,0.0,0.0,0.0,0.0,15.0
25.31,0.0,0.0,0.0,0.0,0.0,0.0,0.0,15.0
25.29,0.0,0.0,0.0,0.0,0.0,0.0,0.0,15.0
25.13,0.0,0.0,0.0,0.0,0.0,0.0,0.0,15.0
25.17,0.0,0.0,0.0,0.0,0.0,0.0,0.0,15.0
25.37,0.0,0.0,0.0,0.0,0.0,0.0,0.0,15.0
25.41,0.0,0.0,0.0,0.0,0.0,0.0,0.0,15.0
25.61,0.0,0.0,0.0,0.0,0.0,0.0,0.0,15.0
25.59,0.0,0.0,0.0,0.0,0.0,0.0,0.0,15.0
25.25,0.0,0.0,0.0,0.0,0.0,0.0,0.0,15.0
25.01,0.0,0.0,0.0,0.0,0.0,0.0,0.0,15.0
25.01,0.0,0.0,0.0,0.0,0.0,0.0,0.0,15.0
24.99,0.0,0.0,0.0,0.0,0.0,0.0,0.0,15.0
25.01,0.0,0.0,0.0,0.0,0.0,0.0,0.0,15.0
25.17,0.0,0.0,0.0,0.0,0.0,0.0,0.0,15.0
25.13,0.0,0.0,0.0,0.0,0.0,0.0,0.0,15.0
25.07,0.0,0.0,0.0,0.0,0.0,0.0,0.0,15.0
25.13,0.0,0.0,0.0,0.0,0.0,0.0,0.0,15.0
25.13,0.0,0.0,0.0,0.0,0.0,0.0,0.0,15.0
25.17,0.0,0.0,0.0,0.0,0.0,0.0,0.0,15.0
25.13,0.0,0.0,0.0,0.0,0.0,0.0,0.0,15.0
25.19,0.0,0.0,0.0,0.0,0.0,0.0,0.0,15.0
25.05,0.0,0.0,0.0,0.0,0.0,0.0,0.0,15.0
25.05,0.0,0.0,0.0,0.0,0.0,0.0,0.0,15.0
24.99,0.0,0.0,0.0,0.0,0.0,0.0,0.0,15.0
25.01,0.0,0.0,0.0,0.0,0.0,0.0,0.0,15.0
25.05,0.0,0.0,0.0,0.0,0.0,0.0,0.0,15.0
25.13,0.0,0.0,0.0,0.0,0.0,0.0,0.0,15.0
25.17,0.0,0.0,0.0,0.0,0.0,0.0,0.0,15.0
25.11,0.0,0.0,0.0,0.0,0.0,0.0,0.0,15.0
25.23,0.0,0.0,0.0,0.0,0.0,0.0,0.0,15.0
25.11,0.0,0.0,0.0,0.0,0.0,0.0,0.0,15.0
25.07,0.0,0.0,0.0,0.0,0.0,0.0,0.0,15.0
25.17,0.0,0.0,0.0,0.0,0.0,0.0,0.0,15.0
25.11,0.0,0.0,0.0,0.0,0.0,0.0,0.0,15.0
25.13,0.0,0.0,0.0,0.0,0.0,0.0,0.0,15.0
25.07,0.0,0.0,0.0,0.0,0.0,0.0,0.0,15.0
25.11,0.0,0.0,0.0,0.0,0.0,0.0,0.0,15.0
25.13,0.0,0.0,0.0,0.0,0.0,0.0,0.0,15.0
25.07,0.0,0.0,0.0,0.0,0.0,0.0,0.0,15.0
25.07,0.0,0.0,0.0,0.0,0.0,0.0,0.0,15.0
25.11,0.0,0.0,0.0,0.0,0.0,0.0,0.0,15.0
25.13,0.0,0.0,0.0,0.0,0.0,0.0,0.0,15.0
25.07,0.0,0.0,0.0,0.0,0.0,0.0,0.0,15.0
25.19,0.0,0.0,0.0,0.0,0.0,0.0,0.0,15.0
25.05,0.0,0.0,0.0,0.0,0.0,0.0,0.0,15.0
25.05,0.0,0.0,0.0,0.0,0.0,0.0,0.0,15.0
25.25,0.0,0.0,0.0,0.0,0.0,0.0,0.0,15.0
25.37,0.0,0.0,0.0,0.0,0.0,0.0,0.0,15.0
25.41,0.0,0.0,0.0,0.0,0.0,0.0,0.0,15.0
25.53,0.0,0.0,0.0,0.0,0.0,0.0,0.0,18.0
25.61,0.0,0.0,0.0,0.0,0.0,0.0,0.0,27.0
25.59,0.0,0.0,0.0,0.0,0.0,0.0,0.0,38.0
25.55,0.0,0.0,0.0,0.0,0.0,0.0,0.0,47.0
25.61,0.0,0.0,0.0,0.0,0.0,0.0,0.0,56.0
25.61,0.0,0.0,0.0,0.0,0.0,0.0,0.0,65.0
25.59,0.0,0.0,0.0,0.0,0.0,16.0,0.0,75.0
25.59,0.0,57.0,0.0,0.0,0.0,1156.0,1313.0,85.0
25.63,0.0,66.0,0.0,0.0,0.0,1226.0,1423.0,95.0
25.69,0.0,81.0,0.0,0.0,0.0,1262.0,1496.0,100.0
25.59,0.0,90.0,0.0,0.0,0.0,1274.0,1518.0,100.0
25.55,0.0,88.0,0.0,0.0,0.0,1286.0,1523.0,100.0
25.55,0.0,85.0,0.0,0.0,0.0,1268.0,1521.0,100.0
25.59,0.0,128.0,0.0,0.0,0.0,1140.0,1503.0,100.0
25.63,0.0,157.0,0.0,0.0,0.0,943.0,1504.0,100.0
25.67,0.0,182.0,0.0,0.0,0.0,741.0,1502.0,100.0
25.55,48.0,179.0,0.0,0.0,0.0,0.0,1552.0,100.0
25.59,0.0,176.0,0.0,0.0,0.0,0.0,1617.0,100.0
25.53,0.0,163.0,0.0,0.0,0.0,0.0,1682.0,100.0
25.55,0.0,146.0,0.0,0.0,0.0,0.0,1833.0,100.0
25.55,0.0,151.0,0.0,0.0,0.0,0.0,1885.0,100.0
25.59,0.0,149.0,0.0,0.0,0.0,0.0,1906.0,100.0
25.61,0.0,163.0,0.0,0.0,0.0,0.0,1889.0,100.0
25.61,0.0,160.0,0.0,0.0,0.0,0.0,1836.0,100.0
25.55,0.0,198.0,0.0,0.0,0.0,0.0,1775.0,100.0
25.59,0.0,181.0,0.0,0.0,0.0,0.0,1740.0,100.0
25.55,0.0,227.0,0.0,0.0,0.0,0.0,1578.0,100.0
25.61,0.0,243.0,0.0,0.0,0.0,0.0,1640.0,100.0
25.61,0.0,266.0,0.0,0.0,0.0,0.0,1614.0,100.0
25.55,0.0,263.0,0.0,0.0,0.0,0.0,1532.0,100.0
25.49,0.0,335.0,0.0,0.0,0.0,0.0,1596.0,100.0
25.55,0.0,273.0,0.0,0.0,0.0,0.0,1599.0,100.0
25.59,0.0,272.0,0.0,0.0,0.0,0.0,1586.0,100.0
25.47,0.0,286.0,0.0,0.0,0.0,0.0,1489.0,100.0
25.59,0.0,247.0,0.0,0.0,6.0,0.0,1652.0,100.0
25.59,0.0,235.0,0.0,0.0,0.0,0.0,1688.0,100.0
25.43,0.0,243.0,0.0,0.0,0.0,0.0,1790.0,100.0
25.53,0.0,199.0,0.0,0.0,0.0,0.0,1928.0,100.0
25.55,0.0,202.0,0.0,0.0,0.0,0.0,1959.0,100.0
25.53,0.0,256.0,0.0,0.0,0.0,0.0,1976.0,100.0
25.49,0.0,187.0,0.0,0.0,0.0,0.0,2018.0,100.0
25.47,0.0,119.0,0.0,0.0,0.0,0.0,2034.0,100.0
25.43,0.0,73.0,0.0,0.0,0.0,0.0,2134.0,100.0
25.55,0.0,53.0,0.0,0.0,0.0,0.0,2176.0,100.0
25.53,0.0,22.0,0.0,0.0,0.0,0.0,2162.0,100.0
25.61,0.0,0.0,0.0,0.0,0.0,0.0,2220.0,100.0
25.61,0.0,0.0,0.0,0.0,0.0,0.0,2248.0,100.0
25.59,0.0,0.0,0.0,0.0,0.0,0.0,2247.0,100.0
25.55,0.0,0.0,0.0,0.0,0.0,0.0,2239.0,100.0
25.67,0.0,9.0,0.0,0.0,0.0,0.0,2241.0,100.0
25.61,0.0,16.0,0.0,0.0,0.0,0.0,2171.0,100.0
25.55,0.0,87.0,0.0,0.0,0.0,0.0,2103.0,100.0
25.53,0.0,148.0,0.0,0.0,0.0,0.0,2016.0,100.0
25.47,0.0,175.0,0.0,0.0,0.0,0.0,1953.0,100.0
25.47,0.0,198.0,0.0,0.0,0.0,0.0,1888.0,100.0
25.43,0.0,225.0,0.0,0.0,0.0,0.0,1832.0,100.0
25.41,0.0,242.0,0.0,0.0,0.0,0.0,1816.0,100.0
25.55,0.0,243.0,0.0,0.0,0.0,0.0,1798.0,100.0
25.55,0.0,289.0,0.0,0.0,0.0,0.0,1644.0,100.0
25.55,0.0,278.0,0.0,0.0,0.0,0.0,1738.0,100.0
25.55,0.0,275.0,0.0,0.0,0.0,0.0,1646.0,100.0
25.53,0.0,291.0,0.0,0.0,0.0,0.0,1672.0,100.0
25.49,0.0,0.0,0.0,0.0,0.0,0.0,1672.0,100.0
25.47,0.0,290.0,0.0,0.0,0.0,0.0,1682.0,100.0
25.43,0.0,291.0,0.0,0.0,0.0,0.0,1714.0,100.0
25.55,0.0,281.0,0.0,0.0,0.0,0.0,1731.0,100.0
25.59,0.0,288.0,0.0,0.0,0.0,0.0,1731.0,100.0
25.47,0.0,273.0,0.0,0.0,0.0,0.0,1742.0,100.0
25.55,0.0,266.0,0.0,0.0,0.0,0.0,1717.0,100.0
25.43,48.0,287.0,0.0,0.0,0.0,0.0,1754.0,100.0
25.49,0.0,270.0,0.0,0.0,0.0,0.0,1860.0,100.0
25.47,0.0,265.0,0.0,0.0,0.0,0.0,1860.0,100.0
25.49,0.0,254.0,0.0,0.0,0.0,0.0,1950.0,100.0
25.55,0.0,234.0,0.0,0.0,0.0,0.0,2003.0,100.0
25.43,0.0,146.0,0.0,0.0,0.0,0.0,2151.0,100.0
25.43,0.0,117.0,0.0,0.0,0.0,0.0,2195.0,100.0
25.53,0.0,112.0,0.0,0.0,0.0,0.0,2219.0,100.0
25.53,0.0,112.0,0.0,0.0,0.0,0.0,2202.0,100.0
25.53,0.0,47.0,0.0,0.0,0.0,0.0,2252.0,100.0
25.61,0.0,0.0,0.0,0.0,0.0,0.0,2358.0,100.0
25.63,0.0,0.0,0.0,0.0,0.0,0.0,2276.0,100.0
25.63,0.0,13.0,0.0,0.0,0.0,0.0,2282.0,100.0
25.53,0.0,16.0,0.0,0.0,0.0,0.0,2277.0,100.0
25.59,0.0,12.0,0.0,0.0,0.0,0.0,2285.0,100.0
25.61,0.0,16.0,0.0,0.0,0.0,0.0,2292.0,100.0
25.61,0.0,18.0,0.0,0.0,0.0,0.0,2295.0,100.0
25.49,0.0,16.0,0.0,0.0,0.0,0.0,2290.0,100.0
25.55,0.0,16.0,0.0,0.0,0.0,0.0,2296.0,100.0
25.55,0.0,25.0,0.0,0.0,0.0,0.0,2294.0,100.0
25.61,0.0,17.0,0.0,0.0,0.0,0.0,2299.0,100.0
25.63,0.0,23.0,0.0,0.0,0.0,0.0,2303.0,100.0
25.55,0.0,142.0,0.0,0.0,0.0,0.0,2301.0,100.0
25.69,0.0,17.0,0.0,0.0,0.0,0.0,2308.0,15.0
25.63,0.0,0.0,0.0,0.0,0.0,0.0,111.0,15.0
25.35,0.0,0.0,0.0,0.0,0.0,0.0,4.0,15.0
25.35,0.0,0.0,0.0,0.0,0.0,0.0,0.0,15.0
25.67,0.0,0.0,0.0,0.0,0.0,0.0,0.0,15.0
27.53,0.0,0.0,0.0,0.0,0.0,0.0,0.0,15.0
27.31,0.0,0.0,0.0,0.0,0.0,0.0,0.0,15.0
27.23,0.0,0.0,0.0,0.0,0.0,0.0,0.0,15.0
27.31,0.0,0.0,0.0,0.0,0.0,0.0,0.0,15.0
26.99,0.0,0.0,0.0,0.0,0.0,0.0,0.0,15.0
25.29,0.0,0.0,0.0,0.0,0.0,0.0,0.0,15.0
25.11,0.0,0.0,0.0,0.0,0.0,0.0,0.0,15.0
25.01,0.0,0.0,0.0,0.0,0.0,0.0,0.0,15.0
24.89,0.0,0.0,0.0,0.0,0.0,0.0,0.0,15.0
24.95,0.0,0.0,0.0,0.0,0.0,0.0,0.0,15.0
24.89,0.0,0.0,0.0,0.0,0.0,0.0,0.0,15.0
24.77,0.0,0.0,0.0,0.0,0.0,0.0,0.0,15.0
24.87,0.0,0.0,0.0,0.0,0.0,0.0,0.0,15.0
24.99,0.0,0.0,0.0,0.0,0.0,0.0,0.0,15.0
25.07,0.0,0.0,0.0,0.0,0.0,0.0,0.0,15.0
25.01,0.0,0.0,0.0,0.0,0.0,0.0,0.0,15.0
25.07,0.0,0.0,0.0,0.0,0.0,0.0,0.0,15.0
25.17,0.0,0.0,0.0,0.0,0.0,0.0,0.0,15.0
25.13,0.0,0.0,0.0,0.0,0.0,0.0,0.0,15.0
25.25,0.0,0.0,0.0,0.0,0.0,0.0,0.0,15.0
25.29,0.0,0.0,0.0,0.0,0.0,0.0,0.0,15.0
25.35,0.0,0.0,0.0,0.0,0.0,0.0,0.0,15.0
25.29,0.0,0.0,0.0,0.0,0.0,0.0,0.0,15.0
25.25,0.0,0.0,0.0,0.0,0.0,0.0,0.0,15.0
25.25,0.0,0.0,0.0,0.0,0.0,0.0,0.0,15.0
25.31,0.0,0.0,0.0,0.0,0.0,0.0,0.0,15.0
25.29,0.0,0.0,0.0,0.0,0.0,0.0,0.0,15.0
25.25,0.0,0.0,0.0,0.0,0.0,0.0,0.0,15.0
25.31,0.0,0.0,0.0,0.0,0.0,0.0,0.0,15.0
25.23,0.0,0.0,0.0,0.0,0.0,0.0,0.0,15.0
25.31,0.0,0.0,0.0,0.0,0.0,0.0,0.0,15.0
25.29,0.0,0.0,0.0,0.0,0.0,0.0,0.0,15.0
25.35,0.0,0.0,0.0,0.0,0.0,0.0,0.0,15.0
25.55,0.0,0.0,0.0,0.0,0.0,0.0,0.0,15.0
25.69,0.0,0.0,0.0,0.0,0.0,0.0,0.0,15.0
25.69,0.0,0.0,0.0,0.0,0.0,0.0,0.0,15.0
25.67,0.0,0.0,0.0,0.0,0.0,0.0,0.0,15.0
25.67,0.0,0.0,0.0,0.0,0.0,0.0,0.0,15.0
25.49,0.0,0.0,0.0,0.0,0.0,0.0,0.0,15.0
25.61,0.0,0.0,0.0,0.0,0.0,0.0,0.0,15.0
25.61,0.0,0.0,0.0,0.0,0.0,0.0,0.0,15.0
25.59,0.0,0.0,0.0,0.0,0.0,0.0,0.0,15.0
25.61,0.0,0.0,0.0,0.0,0.0,0.0,0.0,15.0
25.49,0.0,0.0,0.0,0.0,0.0,0.0,0.0,15.0
25.67,0.0,0.0,0.0,0.0,0.0,0.0,0.0,15.0
25.79,0.0,0.0,0.0,264.0,0.0,0.0,0.0,15.0
25.81,0.0,0.0,0.0,0.0,0.0,0.0,0.0,15.0
25.67,0.0,0.0,0.0,0.0,0.0,0.0,0.0,15.0
25.47,0.0,0.0,0.0,0.0,0.0,0.0,0.0,15.0
25.41,0.0,0.0,0.0,0.0,0.0,0.0,0.0,15.0
25.35,0.0,0.0,0.0,0.0,0.0,0.0,0.0,15.0
26.77,0.0,0.0,0.0,0.0,0.0,0.0,0.0,15.0
28.57,0.0,0.0,0.0,0.0,0.0,0.0,0.0,15.0
34.69,0.0,0.0,0.0,0.0,0.0,0.0,0.0,15.0
36.65,0.0,0.0,0.0,0.0,0.0,0.0,0.0,15.0
37.49,0.0,0.0,0.0,0.0,0.0,0.0,0.0,15.0
38.59,0.0,0.0,0.0,0.0,0.0,0.0,0.0,17.0
38.53,0.0,0.0,0.0,0.0,0.0,0.0,0.0,27.0
39.01,0.0,0.0,0.0,0.0,0.0,0.0,0.0,37.0
39.23,0.0,0.0,0.0,0.0,0.0,0.0,0.0,46.0
39.03,0.0,0.0,0.0,0.0,0.0,0.0,0.0,56.0
38.21,0.0,0.0,0.0,0.0,0.0,0.0,299.0,66.0
37.91,0.0,0.0,0.0,0.0,0.0,0.0,1987.0,75.0
37.91,0.0,0.0,0.0,0.0,0.0,0.0,2147.0,85.0
37.87,0.0,0.0,0.0,0.0,0.0,0.0,2178.0,96.0
37.79,0.0,0.0,0.0,0.0,0.0,0.0,2247.0,100.0
37.83,0.0,0.0,0.0,0.0,0.0,0.0,2295.0,100.0
37.85,0.0,0.0,0.0,0.0,0.0,0.0,2307.0,100.0
37.87,0.0,0.0,0.0,0.0,0.0,0.0,2304.0,100.0
37.79,0.0,0.0,0.0,0.0,0.0,0.0,2331.0,100.0
37.85,0.0,0.0,0.0,0.0,0.0,0.0,2331.0,100.0
37.83,0.0,0.0,0.0,0.0,0.0,0.0,2274.0,100.0
37.83,0.0,0.0,0.0,0.0,0.0,0.0,2346.0,100.0
37.79,0.0,0.0,0.0,0.0,0.0,0.0,2284.0,100.0
37.85,0.0,0.0,0.0,0.0,0.0,0.0,2288.0,100.0
37.85,0.0,0.0,16.0,0.0,0.0,0.0,2249.0,100.0
37.85,0.0,0.0,0.0,0.0,0.0,0.0,2204.0,100.0
37.87,0.0,0.0,0.0,0.0,0.0,0.0,2114.0,100.0
37.87,0.0,0.0,0.0,0.0,0.0,0.0,2062.0,100.0
37.85,0.0,0.0,0.0,0.0,0.0,0.0,2038.0,100.0
37.91,0.0,0.0,0.0,0.0,0.0,0.0,2029.0,100.0
37.95,0.0,0.0,0.0,0.0,0.0,0.0,1988.0,100.0
37.95,0.0,0.0,0.0,0.0,0.0,0.0,1981.0,100.0
37.95,0.0,0.0,0.0,0.0,0.0,0.0,2012.0,100.0
37.93,0.0,0.0,0.0,0.0,0.0,0.0,2028.0,100.0
37.99,0.0,0.0,0.0,0.0,0.0,0.0,2031.0,100.0
38.13,0.0,0.0,0.0,0.0,0.0,0.0,2048.0,100.0
38.09,0.0,0.0,0.0,0.0,0.0,0.0,2062.0,100.0
38.11,0.0,0.0,0.0,0.0,0.0,0.0,2065.0,100.0
38.09,0.0,0.0,0.0,0.0,0.0,0.0,2064.0,100.0
38.09,0.0,0.0,0.0,0.0,0.0,0.0,2072.0,100.0
38.05,0.0,0.0,0.0,0.0,0.0,0.0,2096.0,100.0
38.03,0.0,0.0,0.0,0.0,0.0,0.0,2092.0,100.0
37.95,0.0,0.0,0.0,0.0,0.0,0.0,2080.0,100.0
37.93,0.0,0.0,0.0,0.0,0.0,0.0,2121.0,100.0
37.93,0.0,0.0,0.0,0.0,0.0,0.0,2131.0,100.0
38.05,0.0,0.0,0.0,0.0,0.0,0.0,2134.0,100.0
38.03,0.0,0.0,0.0,0.0,0.0,0.0,2111.0,100.0
37.99,0.0,0.0,0.0,0.0,0.0,0.0,2150.0,100.0
37.93,0.0,0.0,0.0,0.0,0.0,0.0,2190.0,100.0
37.91,0.0,0.0,0.0,0.0,0.0,0.0,2257.0,100.0
37.93,0.0,0.0,0.0,0.0,0.0,0.0,2347.0,100.0
38.03,0.0,0.0,0.0,0.0,0.0,0.0,2387.0,100.0
38.01,0.0,0.0,0.0,0.0,0.0,0.0,2402.0,100.0
38.11,0.0,0.0,0.0,0.0,0.0,0.0,2428.0,100.0
38.09,0.0,0.0,0.0,0.0,0.0,0.0,2460.0,100.0
38.13,0.0,0.0,0.0,0.0,0.0,0.0,2470.0,100.0
38.13,0.0,0.0,0.0,0.0,0.0,0.0,2452.0,100.0
38.19,0.0,0.0,0.0,0.0,0.0,0.0,2472.0,100.0
38.19,0.0,0.0,0.0,0.0,0.0,0.0,2469.0,100.0
38.21,0.0,0.0,0.0,0.0,0.0,0.0,2467.0,100.0
38.17,0.0,0.0,0.0,0.0,0.0,0.0,2481.0,100.0
38.17,0.0,0.0,0.0,0.0,0.0,0.0,2456.0,100.0
38.11,0.0,0.0,0.0,0.0,0.0,0.0,2347.0,100.0
38.21,0.0,0.0,0.0,0.0,0.0,0.0,2409.0,100.0
38.19,0.0,0.0,0.0,0.0,0.0,0.0,2269.0,100.0
38.21,0.0,0.0,0.0,0.0,0.0,0.0,2251.0,100.0
38.41,0.0,0.0,0.0,0.0,0.0,0.0,2185.0,100.0
38.41,0.0,0.0,0.0,0.0,0.0,0.0,2117.0,100.0
38.35,0.0,0.0,0.0,0.0,0.0,0.0,2073.0,100.0
38.41,0.0,0.0,0.0,0.0,0.0,0.0,2013.0,100.0
38.27,0.0,0.0,0.0,0.0,0.0,0.0,1969.0,100.0
38.33,0.0,0.0,0.0,0.0,0.0,0.0,2045.0,100.0
38.17,0.0,0.0,0.0,0.0,0.0,0.0,2050.0,100.0
38.17,0.0,0.0,0.0,0.0,0.0,0.0,2054.0,100.0
38.21,0.0,0.0,0.0,0.0,0.0,0.0,2061.0,100.0
38.27,0.0,0.0,0.0,0.0,0.0,0.0,2047.0,100.0
38.29,0.0,0.0,0.0,0.0,0.0,0.0,2120.0,100.0
38.27,0.0,0.0,0.0,0.0,0.0,0.0,2157.0,100.0
38.25,0.0,0.0,0.0,0.0,0.0,0.0,2157.0,100.0
38.29,0.0,0.0,0.0,0.0,0.0,0.0,2188.0,100.0
38.21,0.0,0.0,0.0,0.0,0.0,0.0,2209.0,100.0
38.25,0.0,0.0,0.0,0.0,0.0,0.0,2292.0,100.0
38.25,0.0,0.0,0.0,0.0,0.0,0.0,2288.0,100.0
38.25,0.0,0.0,0.0,0.0,0.0,0.0,2365.0,100.0
38.25,0.0,0.0,0.0,0.0,0.0,0.0,2342.0,100.0
38.25,0.0,0.0,0.0,0.0,0.0,0.0,2412.0,100.0
38.21,0.0,0.0,0.0,0.0,0.0,0.0,2406.0,100.0
38.27,0.0,0.0,0.0,0.0,0.0,0.0,2412.0,100.0
38.25,0.0,0.0,0.0,0.0,0.0,0.0,2407.0,100.0
38.33,0.0,0.0,0.0,0.0,0.0,0.0,2413.0,15.0
38.97,0.0,0.0,0.0,0.0,0.0,0.0,55.0,15.0
27.03,0.0,0.0,0.0,0.0,0.0,0.0,13.0,15.0
26.37,0.0,0.0,0.0,0.0,0.0,0.0,0.0,15.0
26.49,0.0,0.0,0.0,0.0,0.0,0.0,0.0,15.0
26.43,0.0,0.0,0.0,0.0,0.0,0.0,0.0,15.0
26.09,0.0,0.0,0.0,0.0,0.0,0.0,0.0,15.0
26.11,0.0,0.0,0.0,0.0,0.0,0.0,0.0,15.0
26.21,0.0,0.0,0.0,0.0,0.0,0.0,0.0,15.0
26.03,0.0,0.0,0.0,0.0,0.0,0.0,0.0,15.0
25.85,0.0,0.0,0.0,0.0,0.0,0.0,0.0,15.0
25.73,0.0,0.0,0.0,0.0,0.0,0.0,0.0,15.0
25.73,0.0,0.0,0.0,0.0,0.0,0.0,0.0,15.0
25.73,0.0,0.0,0.0,0.0,0.0,0.0,0.0,15.0
25.67,0.0,0.0,0.0,0.0,0.0,0.0,0.0,15.0
25.55,0.0,0.0,0.0,0.0,0.0,0.0,0.0,15.0
25.55,0.0,0.0,0.0,0.0,0.0,0.0,0.0,15.0
25.53,0.0,0.0,0.0,0.0,0.0,0.0,0.0,15.0
25.53,0.0,0.0,0.0,0.0,0.0,0.0,0.0,15.0
25.47,0.0,0.0,0.0,0.0,0.0,0.0,0.0,15.0
25.55,0.0,0.0,0.0,0.0,0.0,0.0,0.0,15.0
25.59,0.0,0.0,0.0,0.0,0.0,0.0,0.0,15.0
25.59,0.0,0.0,0.0,0.0,0.0,0.0,0.0,15.0
25.59,0.0,0.0,0.0,0.0,0.0,0.0,0.0,15.0
25.53,0.0,0.0,0.0,0.0,0.0,0.0,0.0,15.0
25.53,0.0,0.0,0.0,0.0,0.0,0.0,0.0,15.0
25.53,0.0,0.0,0.0,0.0,0.0,0.0,0.0,15.0
25.59,0.0,0.0,0.0,0.0,0.0,0.0,0.0,15.0
25.61,0.0,0.0,0.0,0.0,0.0,0.0,0.0,15.0
25.67,0.0,0.0,0.0,0.0,0.0,0.0,0.0,15.0
25.69,0.0,0.0,0.0,0.0,0.0,0.0,0.0,15.0
25.67,0.0,0.0,0.0,0.0,0.0,0.0,0.0,15.0
25.69,0.0,0.0,0.0,0.0,0.0,0.0,0.0,15.0
25.69,0.0,0.0,0.0,0.0,0.0,0.0,0.0,15.0
25.67,0.0,0.0,0.0,0.0,0.0,0.0,0.0,15.0
25.73,0.0,0.0,0.0,0.0,0.0,0.0,0.0,15.0
25.69,0.0,0.0,0.0,0.0,0.0,0.0,0.0,15.0
25.69,0.0,0.0,0.0,0.0,0.0,0.0,0.0,15.0
25.61,0.0,0.0,0.0,0.0,0.0,0.0,0.0,15.0
25.61,0.0,0.0,0.0,0.0,0.0,0.0,0.0,15.0
25.59,0.0,0.0,0.0,0.0,0.0,0.0,0.0,15.0
25.67,0.0,0.0,0.0,0.0,0.0,0.0,0.0,15.0
25.67,0.0,0.0,0.0,0.0,0.0,0.0,0.0,15.0
25.61,0.0,0.0,0.0,0.0,0.0,0.0,0.0,15.0
25.61,0.0,0.0,0.0,0.0,0.0,0.0,0.0,15.0
25.59,0.0,0.0,0.0,0.0,0.0,0.0,0.0,15.0
25.55,0.0,0.0,0.0,0.0,0.0,0.0,0.0,15.0
25.61,0.0,0.0,0.0,0.0,0.0,0.0,0.0,15.0
25.55,0.0,0.0,0.0,0.0,0.0,0.0,0.0,15.0
25.53,0.0,0.0,0.0,0.0,0.0,0.0,0.0,15.0
25.53,0.0,0.0,0.0,0.0,0.0,0.0,0.0,15.0
25.29,0.0,0.0,0.0,0.0,0.0,0.0,0.0,15.0
25.37,0.0,0.0,0.0,0.0,0.0,0.0,0.0,15.0
25.73,0.0,0.0,0.0,0.0,0.0,0.0,0.0,23.0
25.93,0.0,0.0,0.0,0.0,0.0,0.0,0.0,33.0
26.05,0.0,0.0,0.0,0.0,0.0,0.0,0.0,41.0
25.93,0.0,0.0,0.0,0.0,0.0,0.0,0.0,50.0
25.85,0.0,0.0,0.0,0.0,0.0,0.0,0.0,59.0
26.05,0.0,0.0,0.0,0.0,0.0,0.0,0.0,63.0
26.03,0.0,0.0,0.0,0.0,0.0,0.0,0.0,63.0
25.91,0.0,0.0,0.0,0.0,0.0,0.0,0.0,66.0
25.91,0.0,0.0,0.0,0.0,0.0,0.0,0.0,76.0
25.81,0.0,0.0,0.0,0.0,0.0,0.0,944.0,86.0
25.79,0.0,0.0,0.0,0.0,0.0,0.0,2308.0,96.0
25.73,0.0,0.0,0.0,0.0,0.0,0.0,2365.0,100.0
25.75,0.0,0.0,0.0,0.0,0.0,0.0,2399.0,100.0
25.81,0.0,0.0,0.0,0.0,0.0,0.0,2410.0,100.0
25.79,0.0,0.0,0.0,0.0,0.0,0.0,2425.0,100.0
25.73,0.0,0.0,0.0,0.0,0.0,0.0,2428.0,100.0
25.79,0.0,67.0,0.0,0.0,0.0,0.0,2435.0,100.0
25.75,0.0,0.0,0.0,0.0,0.0,0.0,2437.0,100.0
25.73,0.0,34.0,0.0,0.0,0.0,0.0,2441.0,100.0
25.73,0.0,17.0,0.0,0.0,0.0,0.0,2538.0,100.0
25.69,0.0,18.0,0.0,0.0,0.0,0.0,2528.0,100.0
25.69,0.0,21.0,0.0,0.0,0.0,0.0,2528.0,100.0
25.79,0.0,18.0,0.0,0.0,0.0,0.0,2538.0,100.0
25.73,0.0,17.0,0.0,0.0,0.0,0.0,2536.0,100.0
25.69,0.0,16.0,0.0,0.0,0.0,0.0,2543.0,100.0
25.73,0.0,16.0,0.0,0.0,0.0,0.0,2544.0,100.0
25.75,0.0,32.0,0.0,0.0,0.0,0.0,2547.0,100.0
25.61,0.0,31.0,0.0,0.0,0.0,0.0,2543.0,100.0
25.61,0.0,34.0,0.0,0.0,0.0,0.0,2540.0,100.0
25.59,0.0,34.0,0.0,0.0,0.0,0.0,2555.0,100.0
25.67,0.0,25.0,0.0,89.0,0.0,0.0,2551.0,100.0
25.59,0.0,33.0,0.0,0.0,0.0,0.0,2550.0,100.0
25.59,0.0,31.0,0.0,0.0,0.0,0.0,2547.0,100.0
25.59,0.0,25.0,0.0,0.0,0.0,0.0,2561.0,100.0
25.69,0.0,26.0,0.0,0.0,0.0,0.0,2558.0,100.0
25.69,0.0,9.0,0.0,0.0,0.0,0.0,2573.0,100.0
25.73,0.0,16.0,0.0,0.0,0.0,0.0,2576.0,100.0
25.73,0.0,25.0,0.0,0.0,0.0,0.0,2576.0,100.0
25.79,0.0,18.0,0.0,0.0,0.0,0.0,2577.0,100.0
25.75,0.0,16.0,0.0,0.0,0.0,0.0,2589.0,100.0
25.81,0.0,20.0,0.0,0.0,0.0,0.0,2591.0,100.0
25.81,0.0,23.0,0.0,0.0,0.0,0.0,2581.0,100.0
25.81,0.0,30.0,0.0,0.0,0.0,0.0,2582.0,100.0
25.75,0.0,21.0,0.0,0.0,0.0,0.0,2587.0,100.0
25.73,0.0,73.0,0.0,0.0,0.0,0.0,2591.0,100.0
25.75,0.0,26.0,0.0,0.0,0.0,0.0,2598.0,100.0
25.75,0.0,18.0,0.0,0.0,0.0,0.0,2598.0,100.0
25.67,0.0,20.0,0.0,0.0,0.0,0.0,2589.0,100.0
25.69,0.0,0.0,0.0,0.0,0.0,0.0,2584.0,100.0
25.67,0.0,30.0,0.0,0.0,0.0,0.0,2590.0,100.0
25.59,0.0,20.0,0.0,0.0,0.0,0.0,2597.0,100.0
25.59,0.0,39.0,0.0,0.0,0.0,0.0,2596.0,100.0
25.59,0.0,30.0,0.0,0.0,0.0,0.0,2594.0,100.0
25.61,0.0,42.0,0.0,0.0,0.0,0.0,2582.0,100.0
25.73,0.0,41.0,0.0,0.0,0.0,0.0,2573.0,100.0
25.59,0.0,43.0,0.0,0.0,0.0,0.0,2579.0,100.0
25.53,0.0,43.0,0.0,0.0,0.0,0.0,2585.0,100.0
25.49,0.0,37.0,0.0,0.0,0.0,0.0,2589.0,100.0
25.43,0.0,36.0,0.0,0.0,0.0,0.0,2590.0,100.0
25.55,0.0,41.0,0.0,0.0,0.0,0.0,2589.0,100.0
25.53,0.0,38.0,0.0,0.0,0.0,0.0,2594.0,100.0
25.55,0.0,37.0,0.0,0.0,0.0,0.0,2610.0,100.0
25.59,0.0,32.0,0.0,0.0,0.0,0.0,2604.0,100.0
25.53,0.0,42.0,0.0,0.0,0.0,0.0,2601.0,100.0
25.53,0.0,34.0,0.0,0.0,0.0,0.0,2607.0,100.0
25.53,0.0,48.0,0.0,0.0,0.0,0.0,2610.0,100.0
25.55,0.0,43.0,0.0,0.0,0.0,0.0,2618.0,100.0
25.53,0.0,112.0,0.0,0.0,0.0,0.0,2623.0,100.0
25.59,0.0,41.0,0.0,0.0,0.0,0.0,2622.0,100.0
25.59,0.0,35.0,0.0,0.0,0.0,0.0,2627.0,100.0
25.73,0.0,32.0,0.0,0.0,0.0,0.0,2633.0,100.0
25.61,0.0,43.0,0.0,0.0,0.0,0.0,2628.0,100.0
25.67,0.0,38.0,0.0,0.0,0.0,0.0,2634.0,100.0
25.59,0.0,41.0,0.0,0.0,0.0,0.0,2646.0,100.0
25.53,0.0,41.0,0.0,0.0,0.0,0.0,2640.0,100.0
25.53,0.0,45.0,0.0,0.0,0.0,0.0,2638.0,100.0
25.49,0.0,33.0,0.0,0.0,0.0,0.0,2634.0,100.0
25.49,0.0,41.0,0.0,0.0,0.0,0.0,2649.0,100.0
25.49,0.0,0.0,0.0,0.0,0.0,0.0,2631.0,100.0
25.47,0.0,42.0,0.0,0.0,0.0,0.0,2635.0,100.0
25.53,0.0,48.0,0.0,0.0,0.0,0.0,2630.0,100.0
25.53,0.0,42.0,0.0,0.0,0.0,0.0,2624.0,100.0
25.55,0.0,0.0,0.0,0.0,0.0,0.0,2629.0,100.0
25.53,0.0,46.0,0.0,0.0,0.0,0.0,2620.0,100.0
25.53,0.0,42.0,0.0,0.0,0.0,0.0,2622.0,100.0
25.53,0.0,58.0,0.0,0.0,0.0,0.0,2616.0,100.0
25.53,0.0,20.0,0.0,0.0,0.0,0.0,2615.0,100.0
25.49,0.0,48.0,0.0,0.0,0.0,0.0,2609.0,100.0
25.37,0.0,50.0,0.0,0.0,0.0,0.0,2617.0,100.0
25.41,0.0,51.0,0.0,0.0,0.0,0.0,2619.0,100.0
25.47,0.0,54.0,0.0,0.0,0.0,0.0,2627.0,100.0
25.41,0.0,48.0,0.0,0.0,0.0,0.0,2622.0,100.0
25.43,0.0,52.0,0.0,0.0,0.0,0.0,2616.0,100.0
25.37,0.0,48.0,0.0,0.0,0.0,0.0,2625.0,100.0
25.37,0.0,0.0,0.0,0.0,0.0,0.0,0.0,15.0
25.73,0.0,0.0,0.0,0.0,0.0,0.0,0.0,15.0
25.29,0.0,0.0,0.0,0.0,0.0,0.0,0.0,15.0
25.37,0.0,0.0,0.0,0.0,0.0,0.0,0.0,15.0
25.41,0.0,0.0,0.0,0.0,0.0,0.0,0.0,15.0
25.35,0.0,0.0,0.0,0.0,0.0,0.0,0.0,15.0
25.37,0.0,0.0,0.0,0.0,0.0,0.0,0.0,15.0
25.29,0.0,0.0,0.0,0.0,0.0,0.0,0.0,15.0
25.25,0.0,0.0,0.0,0.0,0.0,0.0,0.0,15.0
25.29,0.0,0.0,0.0,0.0,0.0,0.0,0.0,15.0
25.35,0.0,0.0,0.0,0.0,0.0,0.0,0.0,15.0
25.37,0.0,0.0,0.0,0.0,0.0,0.0,0.0,15.0
25.25,0.0,0.0,0.0,0.0,0.0,0.0,0.0,15.0
25.23,0.0,0.0,0.0,0.0,0.0,0.0,0.0,15.0
25.31,0.0,0.0,0.0,0.0,0.0,0.0,0.0,15.0
25.13,0.0,0.0,0.0,0.0,0.0,0.0,0.0,15.0
24.77,0.0,0.0,0.0,0.0,0.0,0.0,0.0,15.0
24.77,0.0,0.0,0.0,0.0,0.0,0.0,0.0,15.0
24.83,0.0,0.0,0.0,0.0,0.0,0.0,0.0,15.0
24.81,0.0,0.0,0.0,0.0,0.0,0.0,0.0,15.0
24.89,0.0,0.0,0.0,0.0,0.0,0.0,0.0,15.0
24.87,0.0,0.0,0.0,0.0,0.0,0.0,0.0,15.0
24.87,0.0,0.0,0.0,0.0,0.0,0.0,0.0,15.0
24.89,0.0,0.0,0.0,0.0,0.0,0.0,0.0,15.0
24.83,0.0,0.0,0.0,0.0,0.0,0.0,0.0,15.0
24.87,0.0,0.0,0.0,0.0,0.0,0.0,0.0,15.0
24.89,0.0,0.0,0.0,0.0,0.0,0.0,0.0,15.0
24.89,0.0,0.0,0.0,0.0,0.0,0.0,0.0,15.0
25.01,0.0,0.0,0.0,0.0,0.0,0.0,0.0,15.0
25.07,0.0,0.0,0.0,0.0,0.0,0.0,0.0,15.0
25.11,0.0,0.0,0.0,0.0,0.0,0.0,0.0,15.0
25.11,0.0,0.0,0.0,0.0,0.0,0.0,0.0,15.0
25.13,0.0,0.0,0.0,0.0,0.0,0.0,0.0,15.0
25.13,0.0,0.0,0.0,0.0,0.0,0.0,0.0,15.0
25.05,0.0,0.0,0.0,0.0,0.0,0.0,0.0,15.0
25.07,0.0,0.0,0.0,0.0,0.0,0.0,0.0,15.0
25.11,0.0,0.0,0.0,0.0,0.0,0.0,0.0,15.0
25.17,0.0,0.0,0.0,0.0,0.0,0.0,0.0,15.0
25.11,0.0,0.0,0.0,0.0,0.0,0.0,0.0,15.0
25.01,0.0,0.0,0.0,0.0,0.0,0.0,0.0,15.0
24.93,0.0,0.0,0.0,0.0,0.0,0.0,0.0,15.0
24.93,0.0,0.0,0.0,0.0,0.0,0.0,0.0,15.0
